
Integration time [ms]: 4000,000
Averaging Nr. [scans]: 10
Smoothing Nr. [pixels]: 0
Data measured with spectrometer [name]: 1803151U1
Wave   ;Sample   ;Dark     ;Reference;Transmittance
[nm]   ;[counts] ;[counts] ;[counts] ;[%]

 195,95; 2454,274; 2512,211; 2381,564; 0,00000
 196,55; 2180,635; 2248,177; 2200,988; 0,00000
 197,15; 1792,288; 1889,168; 1723,878; 0,00000
 197,76; 3253,133; 3337,208; 3318,423; 0,00000
 198,36; 1845,102; 1977,179; 1936,817; 0,00000
 198,96; 2924,111; 2924,209; 2952,976;-0,34032
 199,56; 2248,730; 2350,196; 2298,208; 0,00000
 200,16; 1883,045; 1989,201; 1859,660; 0,00000
 200,76; 1523,010; 1685,215; 1592,463; 0,00000
 201,36; 3383,408; 3433,245; 3529,899;-51,56254
 201,96; 1625,234; 1810,244; 1673,588; 0,00000
 202,56; 2246,057; 2387,230; 2202,061; 0,00000
 203,16; 2412,362; 2437,212; 2414,840; 0,00000
 203,76; 1899,100; 1921,209; 1961,252;-55,21534
 204,36; 1544,082; 1623,205; 1717,559;-83,85710
 204,96; 2300,842; 2441,189; 2377,444; 0,00000
 205,56; 1965,981; 2036,169; 1960,395; 0,00000
 206,16; 1606,550; 1647,182; 1588,440; 0,00000
 206,76; 1982,332; 2095,177; 1953,746; 0,00000
 207,36; 2761,245; 2848,195; 2920,173;-120,80035
 207,96; 2713,995; 2813,180; 2746,334; 0,00000
 208,56; 2267,570; 2438,205; 2464,836;-640,75341
 209,16; 1888,509; 1922,191; 1910,273; 0,00000
 209,76; 1509,179; 1522,193; 1572,344;-25,94971
 210,36; 1718,101; 1836,191; 1851,791;-757,00826
 210,96; 2037,504; 2125,203; 2118,007; 0,00000
 211,56; 2009,519; 2061,196; 1992,484; 0,00000
 212,16; 4361,288; 4457,174; 4341,365; 0,00000
 212,76; 1812,681; 1847,169; 1803,395; 0,00000
 213,36; 2557,115; 2664,197; 2460,243; 0,00000
 213,96; 2294,419; 2441,196; 2256,484; 0,00000
 214,56; 2005,069; 2139,175; 2052,159; 0,00000
 215,16; 1926,832; 2019,177; 1978,746; 0,00000
 215,76; 3899,300; 4018,209; 4042,252;-494,57250
 216,36; 1536,316; 1672,190; 1497,756; 0,00000
 216,96; 3305,218; 3403,214; 3425,946;-431,10581
 217,56; 1810,164; 1916,188; 1831,892; 0,00000
 218,16; 2328,343; 2392,219; 2484,121;-69,50392
 218,75; 1553,456; 1669,194; 1585,896; 0,00000
 219,35; 1741,920; 1884,184; 1770,510; 0,00000
 219,95; 2328,299; 2354,173; 2295,088; 0,00000
 220,55; 2098,942; 2260,183; 2152,957; 0,00000
 221,15; 2980,698; 2926,179; 3021,575;57,14999
 221,75; 1924,792; 1985,168; 2004,119;-318,59114
 222,35; 2246,137; 2386,201; 2235,177; 0,00000
 222,95; 3283,194; 3343,186; 3273,822; 0,00000
 223,55; 3009,523; 3174,196; 2942,725; 0,00000
 224,15; 2539,821; 2599,172; 2509,536; 0,00000
 224,75; 2224,440; 2235,171; 2257,742;-47,54462
 225,35; 1880,062; 1933,176; 1943,676;-505,82539
 225,95; 2656,138; 2766,189; 2826,203;-183,37584
 226,55; 1854,813; 1901,185; 1847,027; 0,00000
 227,15; 1881,431; 1968,190; 1930,721; 0,00000
 227,75; 3045,094; 3068,186; 3029,822; 0,00000
 228,34; 2042,696; 2055,168; 2067,360;-102,29680
 228,94; 2551,979; 2671,193; 2654,344; 0,00000
 229,54; 1797,670; 1835,211; 1832,323; 0,00000
 230,14; 2230,382; 2360,198; 2199,072; 0,00000
 230,74; 1795,552; 1818,206; 1825,630;-305,19158
 231,34; 1842,593; 1932,204; 1801,283; 0,00000
 231,94; 2337,296; 2514,210; 2350,011; 0,00000
 232,54; 1764,815; 1828,203; 1798,730; 0,00000
 233,14; 2304,841; 2258,207; 2256,906; 0,00000
 233,74; 1828,625; 1933,214; 1948,428;-687,44644
 234,33; 1816,482; 1958,198; 1826,072; 0,00000
 234,93; 1841,539; 1895,177; 1822,229; 0,00000
 235,53; 1849,568; 1866,193; 1915,620;-33,63736
 236,13; 2211,541; 2229,201; 2306,419;-22,87027
 236,73; 2205,258; 2391,218; 2114,086; 0,00000
 237,33; 2132,129; 2293,166; 2102,531; 0,00000
 237,93; 3316,238; 3516,195; 3327,690; 0,00000
 238,53; 1867,265; 1915,182; 1861,405; 0,00000
 239,12; 3686,624; 3789,184; 3804,751;-658,82565
 239,72; 3025,656; 3098,206; 3083,871; 0,00000
 240,32; 1300,420; 1577,232; 1357,648; 0,00000
 240,92; 1402,349; 1418,194; 1472,414;-29,22466
 241,52; 1787,741; 1870,201; 1751,419; 0,00000
 242,12; 2629,187; 2711,186; 2682,339; 0,00000
 242,72; 1701,105; 1863,191; 1706,032; 0,00000
 243,31; 1788,601; 1711,197; 1758,278;164,40498
 243,91; 2203,456; 2297,194; 2170,896; 0,00000
 244,51; 1431,663; 1471,206; 1581,353;-35,89992
 245,11; 4171,886; 4298,198; 4177,313; 0,00000
 245,71; 2718,183; 2738,187; 2794,098;-35,77744
 246,31; 3215,804; 3422,203; 3128,007; 0,00000
 246,90; 3506,263; 3551,206; 3427,353; 0,00000
 247,50; 1728,652; 1878,206; 1636,630; 0,00000
 248,10; 2156,415; 2245,208; 2206,217; 0,00000
 248,70; 1294,668; 1439,181; 1281,646; 0,00000
 249,30; 2099,584; 2143,217; 2123,775; 0,00000
 249,90; 1712,743; 1796,225; 1747,609; 0,00000
 250,49; 1934,166; 2091,218; 1892,569; 0,00000
 251,09; 1814,378; 1853,199; 1868,831;-248,33825
 251,69; 2342,975; 2432,199; 2411,590; 0,00000
 252,29; 2199,348; 2296,200; 2383,901;-110,43477
 252,89; 2072,498; 2158,228; 2240,714;-103,93146
 253,48; 1987,863; 2050,206; 2017,353; 0,00000
 254,08; 1312,179; 1391,193; 1387,344; 0,00000
 254,68; 1205,441; 1292,207; 1272,906; 0,00000
 255,28; 2019,177; 2166,211; 1961,805; 0,00000
 255,88; 1999,779; 2025,193; 2012,344; 0,00000
 256,47; 1332,238; 1477,195; 1462,690; 0,00000
 257,07; 1944,627; 2022,196; 1981,967; 0,00000
 257,67; 2454,896; 2516,168; 2564,360;-127,14152
 258,27; 2079,929; 2125,208; 2086,182; 0,00000
 258,86; 2600,683; 2807,180; 2606,611; 0,00000
 259,46; 1733,198; 1821,228; 1788,714; 0,00000
 260,06; 1949,762; 1989,218; 2013,327;-163,65174
 260,66; 1915,713; 2100,227; 2057,679; 0,00000
 261,26; 3097,411; 3119,203; 3115,489; 0,00000
 261,85; 1258,025; 1372,220; 1304,915; 0,00000
 262,45; 2014,430; 2149,202; 2166,695;-770,41506
 263,05; 1945,737; 1985,201; 1954,177; 0,00000
 263,65; 1219,802; 1328,227; 1346,955;-578,95931
 264,24; 2765,395; 2882,180; 2854,334; 0,00000
 264,84; 2300,296; 2400,204; 2366,524; 0,00000
 265,44; 2492,900; 2567,209; 2551,252; 0,00000
 266,04; 1646,898; 1699,228; 1693,714; 0,00000
 266,63; 1736,897; 1826,192; 1796,550; 0,00000
 267,23; 1191,206; 1167,227; 1108,196; 0,00000
 267,83; 1947,668; 2038,193; 2023,620; 0,00000
 268,42; 1547,952; 1568,200; 1692,142;-16,33681
 269,02; 2857,479; 2966,229; 2938,508; 0,00000
 269,62; 2007,412; 2085,197; 2075,002; 0,00000
 270,22; 1118,788; 1248,210; 1091,529; 0,00000
 270,81; 1993,212; 2089,191; 2109,515;-472,24224
 271,41; 1951,816; 2144,239; 1999,894; 0,00000
 272,01; 1998,922; 2081,202; 1996,213; 0,00000
 272,61; 1952,205; 1929,191; 1983,032;42,74372
 273,20; 2408,572; 2612,235; 2518,512; 0,00000
 273,80; 1573,329; 1667,214; 1590,669; 0,00000
 274,40; 1362,107; 1486,215; 1414,222; 0,00000
 274,99; 1877,387; 2101,228; 1837,990; 0,00000
 275,59; 2260,240; 2333,213; 2278,393; 0,00000
 276,19; 2626,080; 2646,223; 2671,021;-81,22631
 276,78; 1962,794; 2088,192; 1997,309; 0,00000
 277,38; 1542,920; 1587,190; 1508,997; 0,00000
 277,98; 1732,795; 1877,222; 1739,985; 0,00000
 278,57; 1508,505; 1695,191; 1513,032; 0,00000
 279,17; 1842,175; 1921,193; 1901,103; 0,00000
 279,77; 4099,060; 4198,194; 4158,138; 0,00000
 280,37; 1793,520; 1924,238; 1869,135; 0,00000
 280,96; 1473,625; 1501,220; 1551,915;-54,43384
 281,56; 1185,174; 1214,211; 1165,564; 0,00000
 282,16; 1448,488; 1549,222; 1518,503; 0,00000
 282,75; 1317,999; 1387,173; 1370,088; 0,00000
 283,35; 1739,665; 1704,230; 1804,543;35,32437
 283,95; 1767,832; 1859,226; 1796,885; 0,00000
 284,54; 1596,228; 1545,226; 1616,644;71,41363
 285,14; 1848,739; 1953,225; 1787,367; 0,00000
 285,73; 2158,607; 2212,209; 2090,735; 0,00000
 286,33; 1483,717; 1524,220; 1485,433; 0,00000
 286,93; 1563,739; 1566,225; 1586,367;-12,34273
 287,52; 2000,886; 2235,234; 2000,477; 0,00000
 288,12; 2274,234; 2309,238; 2242,100; 0,00000
 288,72; 2410,582; 2490,241; 2427,723; 0,00000
 289,31; 2243,646; 2248,225; 2212,850; 0,00000
 289,91; 2930,729; 3013,214; 3007,669; 0,00000
 290,51; 1821,752; 1930,206; 1881,630; 0,00000
 291,10; 2164,189; 2219,204; 2034,042; 0,00000
 291,70; 1468,286; 1543,246; 1515,452; 0,00000
 292,29; 2061,693; 2086,198; 2107,796;-113,45843
 292,89; 1638,241; 1583,207; 1734,906;36,27817
 293,49; 2079,387; 2343,222; 2123,503; 0,00000
 294,08; 1093,673; 1244,223; 1137,538; 0,00000
 294,68; 1437,699; 1524,216; 1487,740; 0,00000
 295,28; 1808,840; 1973,213; 1908,393; 0,00000
 295,87; 1713,171; 1670,199; 1675,348;834,53369
 296,47; 1754,751; 1810,212; 1906,117;-57,82979
 297,06; 2084,536; 2246,213; 2182,152; 0,00000
 297,66; 1140,135; 1230,231; 1137,613; 0,00000
 298,26;  889,924; 1001,226;  932,402; 0,00000
 298,85; 2026,255; 2011,212; 2025,358;106,34180
 299,45; 1614,001; 1737,197; 1628,278; 0,00000
 300,04; 1648,104; 1731,203; 1614,006; 0,00000
 300,64; 1736,142; 1835,183; 1809,957; 0,00000
 301,23; 2015,665; 2145,230; 2047,543; 0,00000
 301,83; 1844,393; 1820,204; 1708,283; 0,00000
 302,43; 1866,735; 1863,225; 1897,126;10,35346
 303,02; 1471,369; 1508,181; 1502,646; 0,00000
 303,62; 1596,700; 1624,203; 1749,765;-21,90429
 304,21; 2291,217; 2335,172; 2305,294; 0,00000
 304,81; 2360,078; 2406,199; 2322,831; 0,00000
 305,40; 1776,839; 1888,183; 1825,716; 0,00000
 306,00; 1724,784; 1844,216; 1748,775; 0,00000
 306,59; 1923,938; 1864,195; 1929,690;91,21681
 307,19; 1231,759; 1366,212; 1316,599; 0,00000
 307,79; 1674,719; 1783,202; 1673,971; 0,00000
 308,38; 1786,983; 1870,144; 1835,447; 0,00000
 308,98; 1258,482; 1278,198; 1244,072; 0,00000
 309,57; 1252,820; 1302,232; 1302,648; 0,00000
 310,17; 1977,138; 2087,328; 1963,131; 0,00000
 310,76; 2210,762; 2448,350; 2329,768; 0,00000
 311,36; 1625,510; 1691,263; 1649,602; 0,00000
 311,95; 1338,897; 1473,198; 1275,037; 0,00000
 312,55; 3040,473; 3163,259; 2948,702; 0,00000
 313,14; 1038,627; 1094,232; 1045,131; 0,00000
 313,74; 1193,314; 1356,215; 1279,704; 0,00000
 314,33; 1984,215; 1984,197; 2024,243; 0,04725
 314,93; 2141,170; 2227,205; 2225,836; 0,00000
 315,52; 1966,403; 2056,215; 1992,981; 0,00000
 316,12; 1664,234; 1705,201; 1601,936; 0,00000
 316,71; 5185,484; 5380,223; 5347,262; 0,00000
 317,31;  867,077;  832,217;  955,292;28,32399
 317,90; 1335,094; 1406,228; 1399,473; 0,00000
 318,50; 1203,714; 1180,215; 1176,704; 0,00000
 319,09; 1027,675; 1143,199; 1004,590; 0,00000
 319,69; 1711,851; 1842,219; 1811,604; 0,00000
 320,28; 1686,026; 1746,208; 1695,941; 0,00000
 320,88; 1503,801; 1595,191; 1569,791; 0,00000
 321,47; 1114,514;  986,215; 1077,704;140,23352
 322,07; 1272,321; 1448,220; 1299,674; 0,00000
 322,66; 1261,037; 1325,207; 1243,665; 0,00000
 323,26; 1271,024; 1353,184; 1346,751; 0,00000
 323,85; 1643,077; 1714,217; 1713,292; 0,00000
 324,45;  830,774;  977,211;  830,564; 0,00000
 325,04; 1213,852; 1254,206; 1203,630; 0,00000
 325,64; 1616,999; 1683,222; 1634,227; 0,00000
 326,23; 1338,136; 1433,213; 1302,152; 0,00000
 326,83; 1964,789; 2037,204; 2057,042;-365,03907
 327,42; 1596,024; 1727,226; 1614,402; 0,00000
 328,01; 1525,896; 1553,210; 1496,011; 0,00000
 328,61;  786,428;  856,226;  860,644;-1579,92843
 329,20; 2056,019; 2137,202; 2126,971; 0,00000
 329,80;  820,272;  843,181;  798,887; 0,00000
 330,39; 1463,436; 1520,213; 1536,152;-356,22511
 330,99; 1122,855; 1175,212; 1179,358;-1262,91149
 331,58; 1166,066; 1280,212; 1277,082; 0,00000
 332,17; 1872,937; 1979,207; 1876,665; 0,00000
 332,77; 2545,749; 2584,200; 2659,901;-50,79466
 333,36; 1356,460; 1382,194; 1393,138;-235,14629
 333,96;  752,873;  904,217;  815,051; 0,00000
 334,55; 1038,716; 1104,190; 1046,756; 0,00000
 335,15; 1060,726; 1114,208; 1098,941; 0,00000
 335,74; 1279,852; 1342,200; 1341,142; 0,00000
 336,33; 1156,966; 1267,212; 1170,082; 0,00000
 336,93; 1413,778; 1518,205; 1475,318; 0,00000
 337,52; 1477,974; 1560,211; 1483,564; 0,00000
 338,12; 1481,889; 1535,204; 1517,042; 0,00000
 338,71; 1378,811; 1601,209; 1422,976; 0,00000
 339,30; 2078,185; 2224,210; 2097,288; 0,00000
 339,90; 1263,164; 1419,242; 1316,517; 0,00000
 340,49; 1377,774; 1452,205; 1428,077; 0,00000
 341,08; 1415,647; 1540,225; 1513,850; 0,00000
 341,68; 1332,566; 1365,212; 1351,082; 0,00000
 342,27; 1879,037; 1946,207; 1933,665; 0,00000
 342,87; 1564,284; 1610,223; 1550,262; 0,00000
 343,46; 2056,905; 2096,191; 1998,032; 0,00000
 344,05; 1663,162; 1746,212; 1710,840; 0,00000
 344,65; 1948,805; 2023,191; 2115,032;-80,99465
 345,24; 1837,627; 1907,196; 1952,967;-151,99451
 345,83; 2118,635; 2147,189; 2149,962;-1029,94893
 346,43; 1059,941; 1126,207; 1141,906;-422,11034
 347,02;  888,242; 1055,189;  947,444; 0,00000
 347,61;  995,387; 1148,234;  925,477; 0,00000
 348,21; 2091,852; 2216,200; 2143,142; 0,00000
 348,80;  712,511;  738,209;  812,976;-34,37073
 349,40; 1046,252; 1031,206; 1013,630; 0,00000
 349,99; 1144,875; 1148,193; 1209,103;-5,44741
 350,58; 1454,083; 1666,235; 1375,236; 0,00000
 351,18; 1434,530; 1428,202; 1471,695;14,54990
 351,77; 1120,425; 1195,214; 1163,428; 0,00000
 352,36; 1021,279; 1008,193;  961,344; 0,00000
 352,96;  660,856;  716,200;  678,384; 0,00000
 353,55; 1805,546; 1825,231; 1722,337; 0,00000
 354,14; 1290,485; 1280,210; 1391,288; 9,24969
 354,73;  650,022;  806,202;  734,213; 0,00000
 355,33; 1053,901; 1146,197;  989,278; 0,00000
 355,92; 1386,799; 1422,222; 1425,227;-1178,69938
 356,51;  730,239;  801,231;  735,854; 0,00000
 357,11;  944,198; 1008,234;  928,201; 0,00000
 357,70; 1442,455; 1529,254; 1511,009; 0,00000
 358,29; 1036,017; 1067,220; 1096,433;-106,81507
 358,89; 1040,069; 1209,223; 1130,297; 0,00000
 359,48; 1041,577; 1093,259; 1066,944; 0,00000
 360,07; 1892,146; 1912,231; 2024,337;-17,91581
 360,66; 1344,913; 1447,269; 1372,330; 0,00000
 361,26; 2133,986; 2198,282; 2067,616; 0,00000
 361,85; 1230,873; 1233,265; 1349,189;-2,06371
 362,44; 1434,263; 1515,302; 1358,630; 0,00000
 363,04; 1037,592; 1020,300; 1144,560;13,91623
 363,63; 1106,810; 1100,317; 1130,227;21,70621
 364,22; 1486,543; 1455,321; 1544,885;34,85924
 364,81; 1207,586; 1163,337; 1290,241;34,86802
 365,41; 1851,775; 1782,337; 2007,518;30,83629
 366,00;  802,471;  624,332;  747,789;144,29213
 366,59; 1797,855; 1882,302; 1901,147;-448,11566
 367,18; 3221,266; 3068,308; 3185,358;130,67690
 367,78; 1330,004; 1262,293; 1275,796;501,46003
 368,37; 1206,250; 1067,279; 1338,716;51,19809
 368,96;  971,968;  762,278;  984,923;94,18164
 369,55; 1698,377; 1523,265; 1701,431;98,28589
 370,15; 1428,243; 1370,273; 1405,747;163,41491
 370,74; 2045,684; 1903,265; 1973,913;201,58894
 371,33; 1685,464; 1618,242; 1804,517;36,08743
 371,92; 2288,531; 2245,280; 2439,510;22,26796
 372,51; 1671,272; 1704,277; 1806,164;-32,39426
 373,11; 1130,063; 1143,296; 1182,143;-34,06393
 373,70; 1045,907; 1190,299; 1052,525; 0,00000
 374,29;  965,039;  975,315;  960,157; 0,00000
 374,88; 1384,472; 1357,283; 1398,651;65,72347
 375,48; 1320,434; 1340,286; 1408,239;-29,21325
 376,07; 1423,959; 1326,254; 1516,250;51,42465
 376,66; 1044,839;  949,267; 1105,019;61,36207
 377,25;  648,039;  488,279;  691,993;78,42347
 377,84; 2148,850; 2123,279; 2246,717;20,71554
 378,44; 1782,367; 1778,290; 1776,897; 0,00000
 379,03;  927,162;  871,266; 1037,466;33,63172
 379,62; 1065,112; 1017,281; 1069,304;91,94229
 380,21;  667,275;  682,289;  668,379; 0,00000
 380,80; 1095,405; 1126,287; 1181,309;-56,12886
 381,39;  544,905;  529,287;  568,309;40,02174
 381,99; 1189,679; 1182,277; 1128,646; 0,00000
 382,58; 1767,158; 1809,266; 1746,225; 0,00000
 383,17; 2109,491; 2057,270; 2181,883;41,90646
 383,76; 2259,208; 2241,251; 2206,386; 0,00000
 384,35; 2017,806; 1937,263; 2036,360;81,27688
 384,94; 2490,781; 2619,259; 2724,185;-122,44629
 385,54; 2091,857; 2011,278; 2124,199;71,35886
 386,13;  973,678; 1009,295;  936,108; 0,00000
 386,72; 1732,683; 1791,283; 1763,375; 0,00000
 387,31; 1243,038; 1159,279; 1313,993;54,13820
 387,90; 1012,519; 1070,286; 1054,274; 0,00000
 388,49;  982,578;  986,289;  941,620; 0,00000
 389,08; 2451,167; 2261,290; 2527,897;71,21993
 389,68; 1418,258; 1432,272; 1437,712;-257,64233
 390,27; 1315,332; 1340,268; 1378,536;-65,15989
 390,86; 1332,872; 1293,271; 1270,677; 0,00000
 391,45; 1297,954; 1283,266; 1466,983; 7,99490
 392,04; 2033,125; 1975,256; 2131,079;37,13784
 392,63;  597,517;  522,269;  647,571;60,05344
 393,22;  978,073;  996,271; 1082,677;-21,06212
 393,81;  942,818;  877,257;  876,597; 0,00000
 394,41;  923,593;  944,288; 1029,585;-24,26187
 395,00;  991,338;  912,285; 1029,480;67,45415
 395,59;  473,169;  499,272;  551,435;-50,03996
 396,18; 1127,179; 1120,277; 1094,646; 0,00000
 396,77; 1232,307; 1215,257; 1330,873;14,74681
 397,36; 2813,378; 2812,247; 2892,969; 1,40153
 397,95; 1284,588; 1286,264; 1283,154; 0,00000
 398,54;  815,966;  742,266;  904,707;45,37012
 399,13; 1605,996; 1596,258; 1642,150;21,21906
 399,72;  488,757;  524,278;  645,199;-29,37558
 400,31;  956,892; 1072,300; 1025,560; 0,00000
 400,90; 1343,007; 1271,251; 1328,386;125,59091
 401,50; 1416,601; 1429,282; 1515,581;-14,69343
 402,09; 1646,310; 1550,269; 1699,089;64,53490
 402,68; 1503,604; 1518,287; 1508,309; 0,00000
 403,27;  839,879;  870,277;  901,646;-96,90206
 403,86;  888,550;  968,273;  959,229; 0,00000
 404,45;  707,766;  647,260;  731,220;72,06545
 405,04; 1748,485; 1679,253; 1833,939;44,75675
 405,63; 1227,470; 1191,253; 1282,974;39,48601
 406,22;  819,979;  771,283;  862,133;53,60018
 406,81; 1280,035; 1238,274; 1373,264;30,93670
 407,40; 1521,949; 1594,237; 1516,065; 0,00000
 407,99; 1770,290; 1804,282; 1891,857;-38,81488
 408,58; 1717,998; 1770,282; 1723,339; 0,00000
 409,17; 2037,899; 1960,264; 2094,878;57,67248
 409,76; 1945,049; 1959,285; 1988,204;-49,22605
 410,35;  886,663;  807,254;  943,492;58,28702
 410,94; 1299,372; 1318,271; 1374,677;-33,50560
 411,53; 1986,645; 1993,291; 2043,450;-13,24997
 412,12;  998,230;  968,244; 1030,346;48,28539
 412,71;  877,223;  922,292;  952,002;-151,69927
 413,30;  847,406;  854,263;  820,360; 0,00000
 413,89;  647,938;  667,279;  715,993;-39,70338
 414,48;  689,825;  745,262;  709,567; 0,00000
 415,07; 1458,612; 1542,239; 1568,653;-316,59819
 415,66;  920,500;  913,252;  999,904; 8,36496
 416,25; 1939,777; 1895,259; 2065,944;26,08214
 416,84; 2370,614; 2354,263; 2338,843; 0,00000
 417,43;  951,281;  985,259;  988,185;-1161,25493
 418,02; 1269,079; 1301,277; 1237,646; 0,00000
 418,61;  897,810;  831,269;  913,089;81,32589
 419,20;  842,299;  844,264;  825,878; 0,00000
 419,79;  802,369;  761,266;  893,948;30,97898
 420,38; 1186,776; 1217,271; 1212,918; 0,00000
 420,97; 2003,693; 2023,246; 2071,934;-40,15966
 421,56; 1014,766; 1016,254; 1027,733;-12,95494
 422,15;  865,302;  846,276;  973,094;15,00276
 422,74; 2144,990; 2179,282; 2192,857;-252,61681
 423,33; 1168,156; 1225,248; 1340,522;-49,52781
 423,92; 1616,802; 1710,270; 1755,606;-206,16211
 424,51; 1165,518; 1018,257; 1215,597;74,62311
 425,10; 1111,725;  995,262; 1203,567;55,90999
 425,69;  868,633;  916,256;  922,562;-755,17712
 426,28;  878,031;  819,238;  914,859;61,48516
 426,87; 1097,376; 1087,229; 1147,267;16,90083
 427,46; 2830,827; 2719,238; 2868,618;74,70140
 428,04;  628,934;  640,237;  628,100; 0,00000
 428,63; 1232,689; 1126,246; 1306,693;58,98869
 429,22;  837,303;  778,257;  897,632;49,46258
 429,81; 1303,897; 1268,240; 1447,688;19,87059
 430,40;  446,460;  408,236;  431,789;162,29199
 430,99; 1537,307; 1422,251; 1636,386;53,73069
 431,58; 2640,421; 2577,262; 2728,325;41,80974
 432,17; 2323,474; 2257,247; 2352,728;69,36178
 432,76; 1572,123; 1540,244; 1630,864;35,17840
 433,35; 1691,741; 1642,249; 1635,557; 0,00000
 433,94; 2290,114; 2103,257; 2288,356;100,95006
 434,52;  404,409;  437,233;  519,925;-39,69468
 435,11; 1165,133; 1175,214; 1242,911;-14,89125
 435,70;  856,512;  776,245;  890,140;70,47412
 436,29;  477,533;  457,256;  523,562;30,58141
 436,88; 1546,318; 1488,263; 1559,084;81,97373
 437,47; 1232,946; 1161,231; 1278,337;61,23953
 438,06; 1116,568; 1074,235; 1158,271;50,37419
 438,65; 4055,217; 4070,269; 3972,571; 0,00000
 439,23;  897,129;  917,262;  942,808;-78,81173
 439,82; 1912,635; 1920,274; 1999,264;-9,66986
 440,41; 1296,568; 1247,229; 1297,784;97,59504
 441,00; 1346,114; 1311,257; 1492,356;19,24785
 441,59; 1687,761; 1597,272; 1722,953;71,99923
 442,18; 1131,281; 1169,253; 1219,698;-75,27278
 442,77;  785,524;  704,226;  820,402;69,97824
 443,35; 2168,205; 1990,233; 2188,684;89,68078
 443,94; 1731,673; 1688,259; 1758,702;61,63013
 444,53;  759,025;  649,262;  748,567;110,53182
 445,12; 1559,760; 1553,248; 1679,763; 5,14679
 445,71; 1610,094; 1554,234; 1654,960;55,45751
 446,30; 2281,232; 2223,262; 2431,049;27,89909
 446,88;  822,511;  738,251;  857,627;70,58362
 447,47; 1543,940; 1461,255; 1632,044;48,41366
 448,06;  838,246;  781,231;  870,337;63,98589
 448,65; 1619,962; 1531,260; 1692,979;54,84979
 449,24; 2023,418; 1988,263; 2059,084;49,63898
 449,82;  917,562;  795,260; 1040,979;49,77332
 450,41; 1180,028; 1185,268; 1222,295;-14,15083
 451,00; 1238,133; 1155,256; 1237,562;100,69395
 451,59;  466,853;  426,242;  436,794;384,88807
 452,18; 1014,248;  940,249; 1044,040;71,29689
 452,76;  814,963;  738,254;  810,492;106,18964
 453,35; 1170,877; 1133,259; 1249,944;32,23919
 453,94;  985,871;  974,247; 1011,487;31,21231
 454,53; 1179,693; 1041,246; 1302,934;52,90535
 455,12; 1569,859; 1522,260; 1602,737;59,14512
 455,70;  803,159;  707,254;  797,250;106,56549
 456,29; 1011,764;  875,236; 1016,030;96,97014
 456,88; 2024,567; 1889,242; 2099,759;64,28261
 457,47; 2514,724; 2401,232; 2578,890;63,88217
 458,05; 1253,685; 1211,253; 1336,939;33,76064
 458,64; 1173,913; 1118,227; 1358,679;23,15901
 459,23;  773,307;  650,251;  845,386;63,06214
 459,82; 1925,860; 1747,242; 1992,276;72,89519
 460,40; 1338,977; 1235,259; 1406,944;60,41203
 460,99; 1150,484; 1078,223; 1196,262;61,21794
 461,58; 1518,264; 1349,242; 1534,517;91,22737
 462,17;  404,111;  253,251;  528,627;54,78328
 462,75;  780,359;  622,248;  808,763;84,77138
 463,34; 1198,812; 1102,245; 1352,140;38,64288
 463,93; 1292,014; 1155,257; 1480,356;42,06648
 464,52; 1427,902; 1361,227; 1603,955;27,46883
 465,10; 1221,777; 1041,265; 1311,431;66,81520
 465,69; 1809,414; 1525,221; 1889,192;78,08120
 466,28;  583,142;  387,231;  724,096;58,15728
 466,86; 1659,034; 1618,244; 1761,588;28,45631
 467,45;  445,977;  211,259;  514,944;77,29013
 468,04;  471,156;  291,248;  424,522;134,99104
 468,63; 1253,470; 1081,253; 1381,974;57,26804
 469,21; 1446,380; 1182,229; 1417,508;112,27126
 469,80; 1930,111; 1571,251; 1954,627;93,60518
 470,39; 1628,658; 1430,218; 1653,086;89,03927
 470,97;  941,281;  696,253; 1132,698;56,14194
 471,56;  726,214;  415,263;  757,843;90,76741
 472,15; 1379,021; 1107,226; 1467,161;75,51203
 472,73; 1053,741;  832,249; 1249,557;53,07634
 473,32; 1648,642; 1365,231; 1642,096;102,36456
 473,91;  588,438;  352,237;  826,342;49,82045
 474,49; 2005,734; 1718,238; 1988,100;106,53444
 475,08;  822,917;  610,227;  902,920;72,66657
 475,67; 1241,113;  876,233; 1347,166;77,48017
 476,25; 1991,324; 1723,226; 2065,402;78,35089
 476,84;  878,420;  542,232; 1037,648;67,85968
 477,43; 1445,522; 1167,250; 1525,351;77,70778
 478,01; 1606,874; 1415,247; 1724,728;61,91894
 478,60;  603,239;  346,231;  798,854;56,78176
 479,19; 1302,676; 1010,223; 1401,779;74,68995
 479,77; 1006,156;  727,242; 1106,035;73,63239
 480,36;  947,957;  630,236; 1056,548;74,52781
 480,94;  931,368;  604,229; 1027,784;77,23653
 481,53; 1470,026; 1159,244; 1594,105;71,46707
 482,12; 1500,281; 1177,211; 1641,046;69,65189
 482,70; 1220,672;  864,229; 1264,025;89,15616
 483,29;  996,361;  675,224; 1107,815;74,23590
 483,88;  965,125;  622,220; 1041,915;81,70325
 484,46;  966,331;  616,232; 1120,372;69,44486
 485,05; 1135,367;  793,242; 1308,758;66,36561
 485,63; 1916,078; 1592,253; 2048,456;70,98253
 486,22; 1263,862;  898,212; 1355,840;79,90119
 486,81;  702,793;  463,246;  849,934;61,94838
 487,39; 1035,563;  518,200; 1180,866;78,07303
 487,98;  997,747;  611,225; 1103,850;78,46168
 488,56; 1483,604; 1156,245; 1621,658;70,33736
 489,15; 1726,104; 1393,251; 1980,145;56,71425
 489,74; 2171,747; 1708,225; 2274,850;81,80401
 490,32; 1173,474;  851,247; 1384,728;60,40089
 490,91;  963,394;  528,228; 1138,473;71,31017
 491,49; 1048,231;  616,232; 1148,372;81,18151
 492,08; 1247,304;  857,245; 1426,658;68,50200
 492,66; 2440,694; 2032,240; 2715,447;59,78475
 493,25; 1064,961;  564,224; 1219,815;76,37960
 493,84; 1714,868; 1310,229; 1987,784;59,72048
 494,42; 1368,128;  864,220; 1599,156;68,56490
 495,01; 1734,452; 1247,248; 1833,281;83,13596
 495,59; 1371,710;  912,221; 1467,950;82,68211
 496,18;  981,360;  508,236; 1031,789;90,36803
 496,76; 1477,478; 1051,253; 1524,456;90,07219
 497,35;  779,813;  268,227;  998,679;70,03695
 497,93; 1706,812; 1142,239; 1828,653;82,24965
 498,52; 1079,041;  602,249; 1139,557;88,73714
 499,10; 1674,202; 1198,221; 1853,468;72,64150
 499,69; 2721,719; 2214,244; 2916,623;72,25091
 500,27; 2634,243; 2094,219; 2819,121;74,49616
 500,86; 2464,285; 1877,210; 2625,288;78,47776
 501,44; 2870,372; 2355,235; 3041,512;75,06242
 502,03; 1144,078;  607,205; 1252,318;83,22151
 502,61; 1410,280;  839,229; 1522,508;83,57505
 503,20;  710,618;  155,214;  871,946;77,49115
 503,78; 1835,688; 1317,210; 2010,529;74,78211
 504,37; 1052,841;  512,207; 1213,906;77,04638
 504,95; 2904,908; 2418,239; 3108,412;70,51414
 505,54;  786,085;  256,210;  989,288;72,28083
 506,12; 1931,203; 1252,209; 2131,494;77,22122
 506,71; 1255,356;  623,194; 1392,896;82,13077
 507,29; 1235,232;  696,226; 1348,885;82,58614
 507,88; 1141,893;  511,198; 1256,796;84,58920
 508,46;  689,209;  110,227;  886,438;74,59089
 509,05; 1140,714;  460,221; 1250,192;86,14150
 509,63; 3089,009; 2504,227; 3233,438;80,19389
 510,22; 1163,501;  552,240; 1256,929;86,74190
 510,80; 3057,354; 2334,230; 3157,819;87,80146
 511,39; 2523,229; 1877,214; 2804,669;69,65457
 511,97; 1644,090; 1054,234; 1816,719;77,35975
 512,55; 3382,965; 2784,224; 3491,056;84,70771
 513,14; 1204,993;  532,204; 1293,283;88,39934
 513,72; 2103,184; 1307,216; 2328,775;77,91704
 514,31; 2275,695; 1601,222; 2477,986;76,92756
 514,89; 2586,201; 1917,234; 2712,442;84,12480
 515,48; 1731,374;  974,205; 1886,077;83,03459
 516,06; 2241,698; 1444,186; 2446,063;79,60179
 516,65; 1553,727;  798,232; 1740,131;80,20984
 517,23;  841,528;   59,226;  954,644;87,36728
 517,81; 1461,158;  769,218; 1664,086;77,32314
 518,40; 2045,478; 1217,205; 2334,318;74,14404
 518,98; 2035,746; 1368,237; 2326,824;69,63465
 519,57; 1439,007;  689,215; 1686,222;75,20424
 520,15; 1079,001;  272,197; 1241,278;83,25448
 520,73; 1792,924; 1019,232; 1954,890;82,68962
 521,32; 2092,646; 1249,231; 2214,337;87,39093
 521,90; 1431,783;  664,235; 1533,236;88,32530
 522,49; 3844,467; 2943,206; 4152,594;74,52203
 523,07; 1352,115;  466,209; 1577,217;79,73888
 523,65; 3175,114; 2258,215; 3392,705;80,82041
 524,24; 2078,719; 1217,238; 2318,135;78,25264
 524,82; 2115,713; 1130,233; 2409,166;77,05483
 525,40; 2201,885; 1270,210; 2529,288;73,99660
 525,99;  956,681;   57,205; 1215,559;77,65125
 526,57; 1803,729;  821,214; 1946,669;87,29933
 527,16; 2322,627; 1489,190; 2542,479;79,12708
 527,74; 1105,292;   57,210; 1316,770;83,21018
 528,32; 2381,928; 1449,226; 2607,644;80,51518
 528,91; 1281,001;  285,197; 1448,278;85,61772
 529,49; 1853,961;  767,230; 2124,302;80,07911
 530,07; 1864,948;  765,207; 1992,388;89,61520
 530,66; 1140,250;   37,182; 1326,440;85,55837
 531,24; 1616,725;  495,220; 1689,915;93,87371
 531,82; 1455,290;  471,240; 1735,206;77,85414
 532,41; 1925,121;  844,214; 2224,187;78,32816
 532,99; 1739,825;  649,220; 2089,915;75,69989
 533,57; 1941,612;  815,239; 2147,653;84,53626
 534,16; 1984,106;  896,221; 2200,709;83,39554
 534,74; 1587,228;  424,220; 1897,156;78,95849
 535,32; 2738,459; 1596,212; 3088,599;76,53823
 535,90; 2343,636; 1179,213; 2769,152;73,23698
 536,49; 1670,366;  478,212; 1980,082;79,37801
 537,07; 1296,912;   94,239; 1537,653;83,32142
 537,65; 3181,798; 1980,234; 3408,201;84,14505
 538,24; 1474,570;  184,205; 1844,836;77,70333
 538,82; 1844,469;  556,217; 2290,810;74,26828
 539,40; 2880,772; 1499,181; 3203,887;81,04572
 539,99; 2524,369; 1219,223; 2944,297;75,65738
 540,57; 1720,054;  360,224; 2015,332;82,15958
 541,15; 2892,619; 1496,244; 3272,623;78,60797
 541,73; 2575,979; 1080,241; 2852,482;84,39808
 542,32; 1748,041;  266,207; 2133,906;79,34007
 542,90; 2392,951;  940,218; 2710,604;82,05740
 543,48; 3115,227; 1412,196; 3568,967;78,96206
 544,06; 2281,701;  700,240; 2678,929;79,92467
 544,65; 3113,264; 1574,188; 3452,892;81,92226
 545,23; 1835,002;  121,185; 2182,304;83,14981
 545,81; 4684,743; 2978,219; 5010,122;83,98651
 546,39; 1884,449;   32,188; 2241,927;83,82264
 546,98; 2920,675;  912,199; 3335,590;82,87874
 547,56; 2698,366;  705,212; 3143,082;81,75804
 548,14; 3447,843; 1559,219; 3790,121;84,65742
 548,72; 3437,929; 1499,214; 3867,669;81,85567
 549,31; 2617,529;  550,214; 3005,669;84,19273
 549,89; 2847,315;  690,197; 3368,243;80,54823
 550,47; 2901,303;  787,209; 3531,494;77,03626
 551,05; 2669,158;  570,218; 3085,086;83,46124
 551,63; 3924,258; 1782,218; 4473,086;79,60405
 552,22; 3018,547;  807,219; 3533,363;81,11562
 552,80; 2886,924;  671,232; 3478,890;78,91602
 553,38; 3058,075;  820,187; 3644,615;79,23333
 553,96; 2891,607;  659,215; 3529,222;77,78349
 554,54; 3746,950; 1459,231; 4442,578;76,68296
 555,13; 3024,911;  742,209; 3724,976;76,52967
 555,71; 2324,211;  -79,797; 3029,489;77,31705
 556,29; 4254,652; 1856,200; 4986,143;76,62927
 556,87; 3096,240;  686,207; 3702,906;79,88976
 557,45; 2868,094;  358,240; 3560,447;78,37886
 558,03; 2893,531;  277,190; 3635,721;77,90135
 558,62; 3630,729; 1018,208; 4257,182;80,65892
 559,20; 3065,297;  402,192; 3773,550;78,99207
 559,78; 4136,875; 1505,199; 4795,590;79,98064
 560,36; 3365,087;  651,222; 3979,503;81,53955
 560,94; 3597,944;  795,207; 4154,147;83,44113
 561,52; 4683,648; 1763,201; 5325,901;81,97286
 562,11; 3686,756;  655,200; 4353,384;81,97418
 562,69; 4021,292; 1013,210; 4693,770;81,72893
 563,27; 3170,137;   84,207; 3893,665;81,00706
 563,85; 4308,822; 1212,202; 4928,212;83,33185
 564,43; 3171,255;  -79,788; 3693,358;86,16266
 565,01; 3737,082;  536,205; 4545,559;79,83522
 565,59; 3404,220;  157,184; 4004,510;84,39722
 566,18; 3686,815;  382,203; 4461,730;81,00478
 566,76; 3820,413;  552,233; 4515,166;82,46871
 567,34; 4387,048; 1008,207; 5021,388;84,19358
 567,92; 4365,231; 1082,184; 5276,233;78,27870
 568,50; 4142,107;  895,203; 5064,248;77,88126
 569,08; 4629,708; 1355,203; 5588,248;77,35578
 569,66; 3969,990;  728,192; 5047,067;75,06116
 570,24; 4092,861;  546,236; 5226,789;75,77362
 570,82; 4819,826; 1541,202; 6058,454;72,58007
 571,40; 3750,021;  264,214; 4950,187;74,38812
 571,99; 3780,480;  412,217; 5015,534;73,17036
 572,57; 3954,124;  432,184; 4997,751;77,14135
 573,15; 5217,581; 1761,211; 6473,046;73,35507
 573,73; 3483,789;   -2,796; 4747,042;73,40430
 574,31; 4031,616;  514,233; 5227,407;74,62876
 574,89; 4325,971;  656,193; 5583,861;74,47291
 575,47; 3718,333;    2,201; 4873,936;76,27944
 576,05; 4791,902;  971,227; 6079,955;74,78720
 576,63; 4613,831;  659,190; 5808,721;76,79615
 577,21; 4235,562;  317,224; 5510,814;75,44564
 577,79; 4660,182;  636,205; 5720,559;79,14431
 578,37; 3938,715;  -66,791; 5110,217;77,37105
 578,95; 4383,581;  394,211; 5485,046;78,36376
 579,53; 4567,416;  376,197; 5766,243;77,75849
 580,11; 4190,363;  -62,800; 5373,866;78,23109
 580,69; 5602,800; 1108,203; 6612,765;81,65222
 581,27; 7018,701; 2331,191; 8024,791;82,32946
 581,85; 5230,577;  691,211; 6365,805;79,99455
 582,43; 5899,359; 1266,206; 6996,112;80,85915
 583,01; 5182,437;  641,213; 6198,152;81,72167
 583,59; 4906,569;  254,217; 6242,810;77,68690
 584,17; 5592,084;  904,216; 6775,775;79,84027
 584,75; 5299,197;  630,192; 6787,550;75,82807
 585,33; 5587,881;  905,205; 6989,559;76,96259
 585,91; 5751,315; 1225,197; 7299,243;74,51571
 586,49; 5142,114;  553,221; 6838,191;73,01375
 587,07; 5032,613;  566,227; 6751,679;72,20793
 587,65; 5374,928; 1037,220; 7145,156;71,01758
 588,23; 5179,234;  787,189; 7037,962;70,26404
 588,81; 5378,685; 1029,204; 7300,800;69,35206
 589,39; 5041,453;  583,194; 7109,655;68,31050
 589,97; 6313,392; 1779,210; 8630,770;66,17737
 590,55; 4797,767;  307,205; 7168,594;65,44683
 591,13; 5045,157;  706,236; 7137,548;67,46556
 591,71; 5544,427; 1103,196; 7782,967;66,48777
 592,29; 5098,241;  572,201; 7452,418;65,78339
 592,87; 5865,077; 1292,211; 8044,805;67,72014
 593,45; 4985,063;  258,200; 7146,866;68,61798
 594,03; 6416,085; 1703,204; 8550,801;68,82533
 594,61; 5055,390;  206,234; 7309,719;68,26447
 595,19; 5617,648;  622,207; 7717,388;70,40611
 595,77; 5372,722;  266,208; 7336,700;72,22290
 596,35; 5895,712;  597,197; 7590,002;75,77095
 596,93; 5405,131;  166,232; 7139,372;75,12970
 597,51; 5942,306;  539,227; 7523,196;77,36401
 598,09; 6127,103;  679,221; 7866,468;75,79928
 598,66; 6789,771; 1277,205; 8814,836;73,13393
 599,24; 5623,733;  239,201; 7634,936;72,80591
 599,82; 6466,245; 1287,201; 8743,660;69,45715
 600,40; 5441,813;  420,221; 7953,191;66,66152
 600,98; 6311,947; 1674,225; 9085,850;62,57362
 601,56; 4788,848;  303,213; 7925,875;58,84604
 602,14; 4912,419;  474,190; 8121,997;58,03271
 602,72; 5018,886;  608,198; 8291,313;57,40754
 603,30; 4830,214;  714,215; 8393,704;53,59730
 603,87; 5039,858;  849,170; 8801,948;52,69465
 604,45; 5095,344;  880,213; 9015,634;51,81208
 605,03; 4381,986;  251,198; 8235,313;51,73757
 605,61; 5017,799;  886,216; 8933,739;51,33981
 606,19; 4200,778;  217,205; 8233,318;49,69457
 606,77; 5204,267; 1275,199; 9225,107;49,42281
 607,35; 3829,041; -145,799; 7759,418;50,28122
 607,93; 4113,504;  208,197; 8311,520;48,19390
 608,50; 4932,518; 1033,208; 9231,459;47,56270
 609,08; 4392,512;  479,197; 8602,002;48,17689
 609,66; 5679,123; 1832,196; 9891,726;47,73141
 610,24; 5209,524; 1341,232; 9500,890;47,40753
 610,82; 4095,851;  170,218; 8393,604;47,73743
 611,40; 5403,458; 1575,218; 9748,086;46,84084
 611,97; 4059,152;  232,200; 8534,143;46,09707
 612,55; 3766,593; -115,802; 8165,796;46,87978
 613,13; 5068,831; 1137,190; 9300,721;48,16104
 613,71; 5366,141; 1377,201; 9657,419;48,17434
 614,29; 4842,255;  932,206; 9106,871;47,83131
 614,87; 4712,960;  678,194; 9125,138;47,76599
 615,44; 5202,004; 1186,203; 9836,007;46,42650
 616,02; 4238,544;  245,213; 8654,634;47,48640
 616,60; 4251,912;  239,197; 8744,002;47,18174
 617,18; 5244,668; 1084,187; 9800,133;47,73413
 617,76; 5369,763; 1233,206; 9728,354;48,69317
 618,33; 4409,308;  211,197; 8916,761;48,22331
 618,91; 5396,494; 1185,186;10060,821;47,44796
 619,49; 6008,267; 1732,199;10752,107;47,40700
 620,07; 5415,915; 1196,203;10249,730;46,60849
 620,64; 5011,105;  789,191; 9714,032;47,30520
 621,22; 4029,534; -137,799; 8892,937;46,14610
 621,80; 4491,204;  329,197; 9219,520;46,81503
 622,38; 6123,352; 1932,200;10889,143;46,79222
 622,95; 5192,890;  956,192; 9994,067;46,87714
 623,53; 4214,222;   -6,786; 9174,187;45,97560
 624,11; 4780,892;  551,210; 9679,770;46,33461
 624,69; 4318,708;  233,197; 9258,761;45,26599
 625,26; 4390,947;  126,225; 9341,850;46,27708
 625,84; 4399,808;  262,203; 9573,248;44,43760
 626,42; 4768,817;  617,220; 9624,433;46,09192
 627,00; 5194,297; 1008,240;10317,688;44,96569
 627,57; 5529,542; 1155,237;10593,583;46,34610
 628,15; 4275,071;  -96,801; 9520,349;45,45912
 628,73; 5743,052; 1325,206;11120,630;45,10112
 629,31; 4923,721;  673,226;10224,161;44,50344
 629,88; 5223,234;  842,195;10416,449;45,75854
 630,46; 4216,729; -223,792; 9420,183;46,04452
 631,04; 4979,084;  512,216;10045,774;46,85416
 631,61; 5089,604;  589,197;10124,520;47,19722
 632,19; 4385,482; -158,808; 9671,585;46,22694
 632,77; 4942,035;  451,225;10148,126;46,31181
 633,34; 4596,122;  108,208; 9966,700;45,52333
 633,92; 5364,636;  822,213;10917,151;44,99704
 634,50; 4719,420;  121,232;10107,648;46,04442
 635,08; 6296,417; 1781,233;11604,407;45,96461
 635,65; 5418,756;  790,200;10781,384;46,32640
 636,23; 5106,744;  428,207;10548,147;46,23088
 636,81; 6153,741; 1479,207;11701,906;45,72700
 637,38; 4594,352; -246,794;10009,630;47,20110
 637,96; 4622,028; -144,774;10183,644;46,15230
 638,54; 5852,210; 1145,221;11381,950;45,98138
 639,11; 4950,164;  224,194;10498,379;45,99849
 639,69; 6543,813; 1730,185;12211,027;45,92787
 640,26; 4993,937;  209,212;10470,455;46,62910
 640,84; 5748,529;  874,212;11138,683;47,48727
 641,42; 5088,021;  217,212;10956,910;45,35332
 641,99; 5088,614;   82,211;10959,139;46,02773
 642,57; 5451,106;  481,211;11210,366;46,32140
 643,15; 6543,299; 1585,211;12521,594;45,33572
 643,72; 4831,991; -182,789;10897,821;45,25726
 644,30; 5091,983;   91,211;11105,049;45,40445
 644,87; 5824,876;  777,210;11718,277;46,13504
 645,45; 4790,868; -212,790;10767,505;45,56943
 646,03; 6305,261; 1097,210;12441,732;45,90807
 646,60; 6636,053; 1491,210;12595,960;46,33011
 647,18; 5173,845;  198,210;11121,188;45,55200
 647,75; 5480,438;  217,209;11512,416;46,59701
 648,33; 5255,630;    8,209;11614,644;45,21131
 648,91; 4877,222; -250,791;11085,871;45,23389
 649,48; 5392,215;   38,209;11651,099;46,10399
 650,06; 5819,207;  363,209;12034,327;46,74786
 650,63; 5601,299;   -4,792;11965,555;46,83316
 651,21; 6222,592;  858,208;12822,782;44,83556
 651,79; 6606,684; 1101,208;13161,010;45,65146
 652,36; 6244,176;  789,208;13059,238;44,45766
 652,94; 5848,769;  264,207;12289,466;46,44026
 653,51; 5729,061;  178,207;12134,693;46,42546
 654,09; 6459,454;  755,207;13109,921;46,17061
 654,66; 6180,746;  591,207;12919,149;45,34041
 655,24; 6097,638;  399,207;12852,377;45,75888
 655,81; 6871,531; 1080,206;13395,604;47,02507
 656,39; 6243,823;  339,206;13001,832;46,63027
 656,96; 5986,715;   50,206;12746,060;46,75943
 657,54; 7270,808; 1296,206;14216,288;46,24275
 658,11; 6465,300;  518,206;13375,516;46,25458
 658,69; 6423,893;  618,205;13260,743;45,92185
 659,27; 6871,785;  806,205;13599,971;47,41043
 659,84; 7360,377; 1189,205;14326,199;46,97552
 660,42; 6332,969;   56,205;12983,427;48,55463
 660,99; 6176,162; -252,796;13003,654;48,49682
 661,57; 7240,154;  667,204;14097,882;48,93982
 662,14; 7600,946;  943,204;14592,109;48,77858
 662,72; 6329,339; -356,796;13317,338;48,89622
 663,29; 6674,831;   22,204;13599,565;48,99794
 663,87; 6559,324; -263,797;13117,793;50,98886
 664,44; 8187,416; 1122,203;14813,021;51,60549
 665,01; 7668,808;  394,203;14112,249;53,02946
 665,59; 7620,500;  150,203;13909,477;54,29282
 666,16; 7603,693;  -80,797;13914,704;54,90686
 666,74; 8087,186;  178,202;13957,932;57,39578
 667,31; 8686,678;   87,202;14399,159;60,08595
 667,89; 9495,070;  369,202;14749,388;63,46141
 668,46;10998,962; 1387,202;16371,615;64,14505
 669,04;11194,555; 1180,202;16530,844;65,23736
 669,61;10905,547;  301,201;15700,070;68,86444
 670,19;11109,539;  112,201;15553,299;71,22122
 670,76;11503,132;  -86,799;15310,526;75,27236
 671,33;11705,824;  -39,799;15883,754;73,76258
 671,91;13373,417; 1450,200;17316,982;75,14578
 672,48;12306,709;  339,200;16396,209;74,53137
 673,06;12999,901;  850,200;16700,438;76,65312
 673,63;12340,193;  225,200;16355,665;75,10629
 674,21;11827,586; -385,800;16315,893;73,12664
 674,78;12721,778;  731,199;17311,121;72,31988
 675,35;12443,570;  524,199;17096,348;71,92411
 675,93;13138,863; 1321,199;17704,576;72,13204
 676,50;12113,355;  263,199;16852,805;71,43121
 677,08;11847,048;  -18,801;16573,031;71,51621
 677,65;11507,540;  -95,802;16436,260;70,18690
 678,22;12046,732;  346,198;16877,486;70,77812
 678,80;11481,825; -342,802;16497,715;70,21535
 679,37;12014,518;  -99,802;16975,943;70,94460
 679,94;12209,510;   25,198;17326,170;70,42559
 680,52;12880,702;  654,197;18135,398;69,94087
 681,09;13223,895;  653,197;18846,625;69,09472
 681,67;13771,786; 1035,197;19274,854;69,82911
 682,24;13566,579;  748,197;19184,082;69,52952
 682,81;13014,472;  -68,804;18377,309;70,92701
 683,39;13401,464;   -6,804;19025,537;70,44991
 683,96;13838,356;  217,196;19347,764;71,20103
 684,53;14839,948;  926,196;20629,992;70,61458
 685,11;14924,041;  634,196;20446,221;72,12713
 685,68;14780,133;  302,195;20163,447;72,89539
 686,25;14521,426;    7,195;19801,676;73,32463
 686,83;15410,118;  525,195;20706,904;73,75452
 687,40;15744,710;  597,195;21154,131;73,68567
 687,97;15873,402;  561,195;20984,359;74,97471
 688,55;15649,095;    7,194;20868,586;74,98014
 689,12;16045,987;  324,194;20789,814;76,82051
 689,69;16891,680; 1173,194;21721,043;76,49699
 690,27;16070,472;   45,194;20682,270;77,65285
 690,84;16046,164; -358,806;20417,498;78,96000
 691,41;17650,957;  896,193;21921,725;79,68771
 691,98;17966,549;  968,193;21972,953;80,92621
 692,56;17862,342;  639,193;21906,182;80,98537
 693,13;17253,834; -292,807;21173,408;81,74073
 693,70;18172,727;  609,192;22280,637;81,04459
 694,28;17822,219;  330,192;21886,865;81,14437
 694,85;17609,611;  -69,808;21735,092;81,08003
 695,42;18085,303;   98,192;22169,320;81,49611
 695,99;18682,596;  730,192;22649,547;81,90206
 696,57;17852,889;    9,191;21782,775;81,95113
 697,14;18410,180;  397,191;22392,004;81,89653
 697,71;18423,473;  111,191;22400,230;82,15824
 698,28;19152,266;  615,191;23161,459;82,21793
 698,86;20799,758; 2017,191;24405,686;83,89384
 699,43;19709,549;  707,190;23756,914;82,44072
 700,00;19432,842;  347,190;23507,143;82,40799
 700,57;18846,635; -393,810;23127,369;81,80051
 701,15;19905,826;  626,190;24912,598;79,38447
 701,72;18974,318; -142,811;24096,824;78,86723
 702,29;19941,111;  748,189;24722,053;80,05769
 702,86;18806,404; -417,811;23643,281;79,89752
 703,43;20103,797;  857,189;24755,508;80,53541
 704,01;19071,088;  -50,811;23802,736;80,16375
 704,58;18761,682; -442,812;23508,965;80,17983
 705,15;20269,373;  762,188;25351,191;79,33296
 705,72;19387,266; -392,812;24474,420;79,54274
 706,29;19903,957;  193,188;25420,646;78,13220
 706,87;20089,250;  317,188;25259,875;79,26998
 707,44;20178,742;  353,187;25543,104;78,70433
 708,01;20213,334;  235,187;25412,330;79,35033
 708,58;19832,928; -287,813;24850,559;80,03995
 709,15;20080,820; -436,813;25211,785;79,99515
 709,72;21707,213; 1259,187;26667,014;80,47924
 710,30;21014,805;  525,186;25947,242;80,59780
 710,87;19952,896; -449,814;24987,469;80,20790
 711,44;20602,689;  -83,814;25994,697;79,32394
 712,01;20778,381;  -87,814;26125,926;79,60022
 712,58;20971,674; -339,815;26129,152;80,51500
 713,15;22052,967;  355,185;27081,381;81,18545
 713,73;21932,158;  265,185;26537,607;82,47041
 714,30;22210,951;  522,185;26867,836;82,32390
 714,87;22501,543;  446,185;27241,064;82,31184
 715,44;22701,236;  -91,816;27885,291;81,47037
 716,01;23687,127;  704,184;28721,520;82,03115
 716,58;23362,221;  421,184;28187,746;82,62109
 717,15;25010,313; 2039,184;29722,975;82,97682
 717,72;23204,404; -116,816;27849,203;83,39128
 718,30;23680,598; -445,817;28511,430;83,31736
 718,87;24354,689;  240,183;28995,658;83,86057
 719,44;24454,682;  187,183;29500,885;82,78551
 720,01;24123,273;  246,183;28677,113;83,98280
 720,58;25096,566; 1142,182;29742,342;83,75612
 721,15;24103,059; -338,818;28519,568;84,69592
 721,72;24641,451;  254,182;29497,797;83,39348
 722,29;24904,645;  596,182;29692,025;83,54617
 722,86;24528,236;  265,182;29198,252;83,85925
 723,43;25535,828;  933,181;30015,480;84,59664
 724,00;25332,820;  639,181;30025,707;84,03048
 724,57;25406,914;  685,181;29804,936;84,89678
 725,14;24792,305;  174,181;29576,164;83,72947
 725,72;25441,197;  223,181;30025,391;84,61794
 726,29;25823,291;  461,180;30734,619;83,77677
 726,86;26609,582; 1246,180;31433,846;84,01909
 727,43;26507,875;  785,180;31021,074;85,07337
 728,00;25936,967;  209,180;30353,303;85,34926
 728,57;26794,061;  814,180;31515,529;84,62130
 729,14;25908,152; -104,821;30638,758;84,61270
 729,71;26221,145;  615,179;31141,986;83,88026
 730,28;26339,336;  939,179;31412,213;83,35290
 730,85;26064,029;  767,179;31308,441;82,82844
 731,42;25599,021; -112,822;30805,668;83,16009
 731,99;25828,514;   28,178;31306,896;82,48527
 732,56;27186,906; 1352,178;32357,125;83,32454
 733,13;26514,299;  358,178;31832,352;83,10344
 733,70;27017,391;  610,178;32376,580;83,12938
 734,27;26575,982;  152,177;32102,807;82,70199
 734,84;25366,275; -409,823;31014,035;82,02716
 735,41;26154,768;  812,177;31997,264;81,26510
 735,98;25986,561;  307,177;31400,490;82,58812
 736,55;25674,752; -488,823;30932,719;83,26636
 737,12;26443,445; -187,824;31765,945;83,34312
 737,69;26909,438;  191,176;32204,174;83,46067
 738,26;26869,930; -115,824;32741,402;82,13035
 738,83;27425,922;  236,176;33189,629;82,50955
 739,40;27504,814;  208,176;32903,855;83,48699
 739,97;27430,807;  214,175;32804,086;83,51245
 740,53;28009,199;  604,175;33583,313;83,09806
 741,10;28097,791;  784,175;34118,539;81,93831
 741,67;27571,984;  322,175;33540,770;82,03180
 742,24;27475,477;  338,174;33281,996;82,37448
 742,81;26678,168; -446,826;32414,225;82,54451
 743,38;28923,961; 1540,174;33947,453;84,49888
 743,95;28012,354;  300,174;33399,680;83,72385
 744,52;29006,846;  963,174;34132,906;84,54597
 745,09;27918,738; -184,827;33423,137;83,62174
 745,66;28847,531;  853,173;34229,363;83,87524
 746,23;28810,523;  662,173;34318,590;83,63442
 746,80;29427,314; 1280,173;34606,816;84,45838
 747,36;29077,607;  664,173;34661,047;83,57661
 747,93;28586,000;   74,172;33780,273;84,58952
 748,50;28551,592; -124,828;33553,500;85,14799
 749,07;28679,084;  233,172;33670,730;85,07174
 749,64;28407,277;  -63,828;33912,957;83,79576
 750,21;30011,469; 1148,172;35294,184;84,52904
 750,78;29280,961; -128,829;34721,414;84,38905
 751,35;30347,654;  632,171;35452,641;85,33912
 751,92;29719,346;  -64,829;34348,867;86,54744
 752,48;29103,439; -425,829;33868,098;86,10641
 753,05;29603,631;  116,170;34573,324;85,57718
 753,62;31074,123;  876,170;36004,551;85,96455
 754,19;31103,516; 1012,170;35710,777;86,72206
 754,76;31331,607; 1078,170;36341,008;85,79411
 755,33;29664,301; -402,830;34580,234;85,94768
 755,89;31223,693; 1118,169;35985,461;86,34317
 756,46;30507,984;  238,169;35200,691;86,57789
 757,03;30694,977;  346,169;35713,918;85,80927
 757,60;30228,270; -244,831;35205,145;85,96085
 758,17;30833,262;  401,169;36379,375;84,58480
 758,74;31428,555;  993,168;36669,602;85,30950
 759,30;30241,047; -440,832;35403,828;85,59679
 759,87;30808,740;  345,168;35872,055;85,74794
 760,44;31573,131; 1056,168;36244,285;86,72519
 761,01;30689,523;  227,167;35499,512;86,36329
 761,58;31380,516;  785,167;36480,738;85,71189
 762,14;31038,109;  318,167;35953,969;86,20528
 762,71;30899,301;   43,167;35962,195;85,90470
 763,28;31300,094;  774,167;36520,422;85,39615
 763,85;30389,387; -387,834;35761,652;85,13875
 764,41;30980,479;  255,166;36672,879;84,36914
 764,98;31370,471;  261,166;37181,105;84,26153
 765,55;30454,963; -479,834;36487,336;83,68181
 766,12;31067,756;  587,166;36504,563;84,86303
 766,69;30849,447;  294,165;36173,789;85,16054
 767,25;31788,340; 1070,165;37261,016;84,87829
 767,82;31292,932;  369,165;37043,246;84,32049
 768,39;30878,525;  -37,835;36526,473;84,55339
 768,95;30412,117; -135,835;35783,699;85,04551
 769,52;30224,209;  255,164;35683,930;84,58958
 770,09;30017,102; 1049,164;35380,156;84,37839
 770,66;31514,193; 2247,164;36799,383;84,70376
 771,22;30322,686; 1107,164;35328,613;85,37196
 771,79;30457,680; 1220,163;35267,840;85,87228
 772,36;30034,771;  840,163;34382,066;87,03921
 772,93;29529,463;  -22,837;34896,297;84,63068
 773,49;30717,756;  892,163;36083,523;84,75260
 774,06;30283,049;  200,163;35650,750;84,85864
 774,63;29870,840;  210,162;35393,977;84,30205
 775,19;29237,033;  104,162;34809,207;83,94420
 775,76;28982,625;  179,162;34720,434;83,38854
 776,33;28454,318; -161,838;33770,660;84,33260
 776,89;29514,410;  632,162;35077,891;83,84856
 777,46;29238,203;  167,161;34124,117;85,61145
 778,03;29667,195;  480,161;34559,344;85,64476
 778,59;28459,088; -535,839;33355,574;85,55243
 779,16;29230,379;  -96,839;34512,801;84,73714
 779,73;29963,371;  426,161;35094,027;85,20054
 780,29;30534,164;  438,160;35623,258;85,53622
 780,86;30481,656;  104,160;35365,484;86,14962
 781,43;31111,549; 1006,160;36195,711;85,55207
 781,99;30156,240; -105,840;34913,938;86,41426
 782,56;30798,334;  355,159;36111,168;85,14142
 783,13;30938,025;  443,159;36451,395;84,68859
 783,69;30429,619; -107,841;35102,621;86,72837
 784,26;30263,910; -178,841;35183,852;86,08720
 784,82;30692,504;  283,159;35545,078;86,23849
 785,39;30034,096; -469,842;34800,305;86,48656
 785,96;30605,387;  212,158;35622,535;85,83142
 786,52;30354,180;  296,158;35627,762;85,07404
 787,09;29476,672;   91,158;34504,988;85,38868
 787,65;28431,766; -307,842;33527,215;84,94033
 788,22;29067,057;  539,157;34369,445;84,32650
 788,79;29510,750;  596,157;34412,672;85,50436
 789,35;29389,041;  -27,843;34432,898;85,36347
 789,92;29467,033; -139,843;34286,129;86,00157
 790,48;29355,127;  174,157;34269,355;85,58674
 791,05;29334,520;  464,156;34118,582;85,78474
 791,62;29474,811;  940,156;34373,813;85,34709
 792,18;28870,004;  334,156;33680,039;85,57533
 792,75;28362,496;  -53,844;33343,266;85,08623
 793,31;28121,088; -168,845;33082,496;85,07907
 793,88;29274,781; 1212,155;34169,723;85,14775
 794,44;28139,072;   96,155;32636,949;86,17773
 795,01;28904,666;  563,155;32984,176;87,41708
 795,57;28552,457;  133,155;33282,406;85,73135
 796,14;28834,750;  718,154;33679,633;85,30138
 796,70;27448,342; -465,846;32331,861;85,11018
 797,27;28029,635;  864,154;32935,090;84,70436
 797,83;27173,627;  -45,846;31545,316;86,16167
 798,40;27775,820;  209,154;32158,545;86,28229
 798,97;27866,012;   95,153;32330,771;86,14961
 799,53;27883,904; -238,847;32805,000;85,10738
 800,10;27963,096; -475,847;32981,227;85,00129
 800,66;28525,988;  243,153;33646,457;84,67077
 801,23;28619,182;  279,152;33590,684;85,07573
 801,79;31004,174; 2528,152;35672,910;85,91410
 802,35;28868,467;  371,152;33754,137;85,36479
 802,92;28706,857;  258,152;33290,367;86,12412
 803,48;28466,951;  244,152;32875,594;86,48959
 804,05;28546,643;  572,151;33179,820;85,79114
 804,61;29299,135; 1040,151;33913,051;85,96438
 805,18;28546,428;  282,151;33435,277;85,25373
 805,74;29288,119;  831,151;34199,504;85,28131
 806,31;28667,412;  230,151;33632,734;85,13492
 806,87;30781,205; 2274,150;35434,961;85,96610
 807,44;28300,998; -279,850;32977,188;85,93925
 808,00;29554,090;  977,150;34644,418;84,88048
 808,57;29049,281;  522,150;34442,645;84,09999
 809,13;31796,674; 3597,149;36889,871;84,70177
 809,69;28289,367;  485,149;33213,098;84,95558
 810,26;29614,859; 1912,149;34394,328;85,28587
 810,82;27334,852; -488,851;32275,555;84,92052
 811,39;28594,943;  927,149;33730,781;84,34369
 811,95;29511,035; 1787,148;34407,012;84,99081
 812,51;27619,629;  -78,852;32540,238;84,91494
 813,08;27452,721;  -11,852;31885,467;86,10308
 813,64;27285,613;   10,148;31803,693;85,78932
 814,21;28776,805; 1972,148;33413,922;85,25173
 814,77;30490,197; 3352,147;35164,148;85,30759
 815,33;27851,590;  189,147;32352,377;86,00642
 815,90;27509,283;  160,147;31581,605;87,03968
 816,46;27504,074;  351,147;31852,832;86,19516
 817,03;27209,168;  222,147;31586,061;86,04481
 817,59;28048,561; 1274,146;32409,287;85,99420
 818,15;27928,553; 1287,146;32241,516;86,06671
 818,72;27497,145;  750,146;31491,744;87,00588
 819,28;26853,637;  268,146;31227,971;85,87093
 819,84;28240,129; 1659,146;32502,199;86,18143
 820,41;26350,322;  -88,855;30734,428;85,77664
 820,97;27137,113;  776,145;31610,654;85,49177
 821,53;26286,707; -146,855;30965,883;84,96058
 822,10;27461,699;  976,145;31774,109;85,99774
 822,66;26729,590;  330,144;31177,338;85,58135
 823,22;25725,184; -197,856;29849,566;86,27375
 823,79;28467,975; 2562,144;32667,793;86,04973
 824,35;25801,168;  -72,856;29839,021;86,50084
 824,91;25466,561; -137,856;29435,248;86,58008
 825,48;26117,953; 1003,143;30205,477;86,00275
 826,04;25873,145;  949,143;29687,705;86,72668
 826,60;25409,938;  357,143;29276,932;86,62855
 827,17;25699,629;  552,143;29314,160;87,43297
 827,73;24810,322; -452,857;28772,387;86,44301
 828,29;25310,414; -171,858;29017,615;87,29953
 828,85;25920,406;  207,142;29592,844;87,50264
 829,42;27399,898; 1679,142;31416,070;86,49433
 829,98;27011,391;  958,142;31120,299;86,37727
 830,54;27075,383;  972,141;31213,527;86,31629
 831,11;26096,877;  -95,859;29854,754;87,45309
 831,67;26000,768; -165,859;29915,982;86,98479
 832,23;26163,861;  -55,859;30022,209;87,17222
 832,79;25801,652;   33,141;30088,438;85,73701
 833,36;26236,746;  972,140;30216,666;86,39089
 833,92;24513,838;   -5,860;28607,893;85,69200
 834,48;24703,029;  319,140;28136,121;87,65829
 835,04;24128,922;  -93,860;27557,348;87,60117
 835,60;25230,516;  679,140;28742,576;87,48528
 836,17;25315,508;  498,139;29128,805;86,68107
 836,73;24548,400; -322,861;28695,031;85,71009
 837,29;24297,793; -127,861;28399,260;85,62257
 837,85;24917,984;  753,139;29243,488;84,81765
 838,42;23672,176; -429,861;27992,715;84,79892
 838,98;23829,568; -372,862;28165,943;84,80534
 839,54;23859,461; -292,862;28137,170;84,95356
 840,10;24768,754;  542,138;28833,398;85,63286
 840,66;24178,246;  429,138;28213,627;85,47614
 841,23;24436,738;  523,137;28263,854;86,20398
 841,79;24506,131;  560,137;28509,082;85,67763
 842,35;25428,523; 1218,137;29276,309;86,28640
 842,91;23977,316;  175,137;27826,537;86,07947
 843,47;24657,908;  267,137;28636,766;85,97494
 844,03;23806,500; -255,864;27415,992;86,95609
 844,60;23562,393; -139,864;27207,221;86,67197
 845,16;22690,086; -538,864;26550,447;85,74950
 845,72;23106,678;   30,136;26979,676;85,62870
 846,28;23107,469; -217,864;27220,904;85,00867
 846,84;23732,861;   94,135;27739,131;85,50816
 847,40;24497,055;  662,135;28604,359;85,30072
 847,96;23904,146;  -70,865;28110,588;85,07372
 848,53;23800,539;  -74,865;28188,814;84,47380
 849,09;23755,531; -152,865;27946,043;85,08657
 849,65;24503,924;  527,134;28653,270;85,24737
 850,21;24312,115;  227,134;28199,498;86,10277
 850,77;24497,609;  207,134;28628,727;85,46486
 851,33;24703,801;  575,134;28771,953;85,57230
 851,89;26145,893; 2170,134;30381,182;84,98713
 852,45;23665,986; -131,867;27954,408;84,73125
 853,01;23800,277;  274,133;28495,637;83,36248
 853,57;23792,471;  264,133;28320,865;83,85986
 854,14;23043,162; -453,867;27310,092;84,63141
 854,70;23407,855; -104,868;27501,320;85,17193
 855,26;23186,348;  120,132;27169,549;85,27435
 855,82;22910,141;  -32,868;27580,775;83,08577
 856,38;23385,332;  314,132;27687,004;84,28491
 856,94;23772,025;  739,132;28040,230;84,36618
 857,50;23509,916;  162,131;27421,459;85,65063
 858,06;23340,709; -425,869;26761,688;87,41712
 858,62;23828,201;  -85,869;27265,914;87,43149
 859,18;24646,293;  591,131;28073,143;87,53057
 859,74;24345,486;  144,130;28261,369;86,07302
 860,30;24243,979;  287,130;28284,598;85,56791
 860,86;23927,771;  -56,870;28004,826;85,47110
 861,42;23891,164; -430,870;28035,053;85,44263
 861,98;24956,855;  382,130;29124,281;85,50065
 862,54;24119,248; -349,871;27920,508;86,55391
 863,10;24820,939;  604,129;28836,736;85,77603
 863,66;23907,332; -167,871;28256,965;84,69777
 864,22;24821,225;  709,129;28908,191;85,50673
 864,78;24355,217;   15,129;28730,420;84,76351
 865,34;24379,910;  -70,872;28410,648;85,84788
 865,90;24678,203;  358,128;28824,875;85,43328
 866,46;24481,195;  262,128;28879,104;84,63182
 867,02;26173,586; 2357,128;30399,330;84,93077
 867,58;23288,879; -171,872;27632,559;84,37774
 868,14;24771,172; 1469,127;29022,787;84,56969
 868,70;24320,064;  961,127;28294,014;85,46092
 869,26;24262,457;  767,127;28523,242;84,64920
 869,82;23485,748; -190,873;27285,469;86,17094
 870,38;22969,141; -555,874;26683,697;86,36338
 870,94;24333,334; 1293,126;28242,926;85,49306
 871,50;22486,525; -478,874;26563,152;84,92485
 872,06;22571,318; -305,874;26651,381;84,86470
 872,62;22628,910; -218,874;26328,607;86,06385
 873,18;22669,002;  -99,875;26553,836;85,42479
 873,74;23820,996; 1005,125;27372,064;86,53212
 874,29;23329,387;  601,125;27060,291;85,89939
 874,85;22573,387;  -90,875;26216,291;86,15243
 875,41;22745,488;    1,125;26686,291;85,23223
 875,97;23349,387;  342,125;27371,291;85,12013
 876,53;23963,488;  699,125;27718,291;86,10319
 877,09;23950,387;  515,125;28116,291;84,90678
 877,65;24474,688; 1365,125;28664,291;84,65300
 878,21;23341,688;  235,125;27443,291;84,92510
 878,77;23093,287;  229,125;27291,291;84,48755
 879,33;22949,188;  332,125;26935,291;85,01643
 879,88;22529,188;    6,125;26332,291;85,55390
 880,44;22761,088;  211,125;26572,291;85,54236
 881,00;22469,787; -155,875;26417,291;85,14477
 881,56;22409,688;  -64,875;26257,291;85,38265
 882,12;23836,887; 1384,125;27605,291;85,62839
 882,68;22809,387;  309,125;26582,291;85,63970
 883,24;23125,787;  738,125;27042,291;85,11071
 883,79;24104,488; 1468,125;27876,291;85,71729
 884,35;23558,088; 1002,125;27866,291;83,96301
 884,91;22243,088; -395,875;26054,291;85,59100
 885,47;23166,588;  641,125;27209,291;84,78366
 886,03;23062,787;  587,125;26751,291;85,90246
 886,59;22048,988;  -43,875;26006,291;84,80892
 887,14;23062,088;  989,125;27001,291;84,85630
 887,70;21598,588; -543,875;25797,291;84,06030
 888,26;23572,688; 1055,125;27412,291;85,43241
 888,82;23262,787;  330,125;27173,291;85,43203
 889,38;24046,387;  910,125;28029,291;85,31332
 889,93;23488,188;  299,125;27096,291;86,53550
 890,49;22955,887; -431,875;26870,291;85,66266
 891,05;23168,188; -221,875;27448,291;84,53170
 891,61;23837,188;  293,125;27800,291;85,59247
 892,17;24351,588;  573,125;28484,291;85,19337
 892,72;23774,887; -249,875;28088,291;84,77882
 893,28;24522,887;  192,125;28909,291;84,72550
 893,84;24033,588; -438,875;28318,291;85,10040
 894,40;24999,287;  619,125;29330,291;84,91526
 894,95;24162,287; -370,875;28716,291;84,34360
 895,51;24631,988;  173,125;29320,291;83,91506
 896,07;24452,488;   32,125;29426,291;83,07895
 896,63;24219,787; -372,875;28999,291;83,72778
 897,18;25087,988;  422,125;29839,291;83,84854
 897,74;25110,387;  237,125;29398,291;85,29584
 898,30;24673,188; -402,875;28534,291;86,65694
 898,85;25523,787;  304,125;29515,291;86,33569
 899,41;26084,588;  816,125;30207,291;85,97299
 899,97;25043,488; -432,875;29169,291;86,06250
 900,53;25478,988;  367,125;29797,291;85,32695
 901,08;24829,988; -352,875;28879,291;86,14778
 901,64;25376,088;  630,125;29723,291;85,05765
 902,20;24481,988;  -43,875;28571,291;85,70932
 902,75;24468,588;  214,125;28412,291;86,01433
 903,31;24222,688;  -71,875;28630,291;84,64366
 903,87;24134,488; -149,875;28835,291;83,78204
 904,42;24842,387;  697,125;29605,291;83,52402
 904,98;24553,387;  468,125;29051,291;84,26380
 905,54;24206,787;  237,125;28694,291;84,23067
 906,09;23965,887;  148,125;28013,291;85,47504
 906,65;23299,887; -422,875;27585,291;84,69945
 907,21;24273,287;  501,125;28266,291;85,61866
 907,76;23907,088; -159,875;27889,291;85,80278
 908,32;24255,287;   79,125;28335,291;85,56066
 908,88;24173,787;  -29,875;28512,291;84,79967
 909,43;25452,287;  947,125;29532,291;85,72685
 909,99;24565,588;  217,125;28807,291;85,16377
 910,54;24278,488;  266,125;28422,291;85,28279
 911,10;24729,488; 1234,125;28891,291;84,95217
 911,66;25087,088; 1881,125;28858,291;86,02076
 912,21;23646,387;  402,125;27688,291;85,18698
 912,77;23096,887;  -52,875;27413,291;84,28465
 913,33;24224,287;  923,125;28823,291;83,51621
 913,88;23345,688;  321,125;27861,291;83,60357
 914,44;22261,688; -412,875;26401,291;84,56188
 914,99;22204,887; -102,875;26600,291;83,53976
 915,55;22651,887;  382,125;26726,291;84,53394
 916,10;22595,387;  286,125;26711,291;84,42430
 916,66;22934,488;  591,125;27034,291;84,49579
 917,22;21829,787; -127,875;25898,291;84,36764
 917,77;21429,988; -576,875;25734,291;83,64078
 918,33;22639,188;  977,125;26767,291;83,99350
 918,88;21703,188;  373,125;25505,291;84,87156
 919,44;21279,387;  200,125;25175,291;84,40089
 919,99;21724,887;  500,125;25631,291;84,45594
 920,55;22276,488; 1046,125;26101,291;84,73447
 921,10;21338,787;   55,125;25161,291;84,77464
 921,66;21721,488;  479,125;25478,291;84,97229
 922,21;21340,387;  142,125;24807,291;85,94413
 922,77;21726,387;  608,125;25277,291;85,60590
 923,32;23090,887; 1913,125;26436,291;86,35819
 923,88;22211,988; 1020,125;26030,291;84,73300
 924,43;22079,188;  480,125;25633,291;85,87015
 924,99;22152,688;  409,125;25901,291;85,29508
 925,54;21747,688;    6,125;25482,291;85,34079
 926,10;21434,387; -388,875;25154,291;85,43679
 926,65;22062,887;  976,125;26167,291;83,70697
 927,21;21482,088; 1062,125;25056,291;85,10387
 927,76;20397,287;  495,125;24088,291;84,35562
 928,32;18862,387; -510,875;22629,291;83,72136
 928,87;19438,088;  270,125;23181,291;83,66210
 929,43;19708,787;  266,125;23199,291;84,77967
 929,98;19575,488;  -70,875;23174,291;84,51806
 930,54;19935,588;   58,125;23466,291;84,91679
 931,09;19650,887; -202,875;23180,291;84,90622
 931,65;20227,887;  255,125;24066,291;83,87981
 932,20;20328,588;  581,125;24247,291;83,44175
 932,76;20110,787;  539,125;23787,291;84,18583
 933,31;20234,287;  827,125;23825,291;84,38569
 933,86;19680,688;  395,125;23342,291;84,04333
 934,42;19127,787;  -99,875;22653,291;84,50544
 934,97;18818,287;  -72,875;22155,291;84,98750
 935,53;18594,887;  270,125;21697,291;85,52116
 936,08;17583,887;   78,125;20818,291;84,40512
 936,63;16321,688; -143,875;19315,291;84,61597
 937,19;17003,688; 1148,125;20038,291;83,93554
 937,74;15547,388;  142,125;18239,291;85,12528
 938,30;15198,688;  543,125;17968,291;84,10573
 938,85;13993,088; -130,875;16837,291;83,23801
 939,40;14570,688; 1008,125;17265,291;83,42513
 939,96;13573,188;  500,125;16285,292;82,81865
 940,51;12641,188;  245,125;15373,292;81,94028
 941,06;13022,688;  824,125;15470,292;83,28843
 941,62;12201,388;  533,125;14456,292;83,80466
 942,17;12104,388;  876,125;14452,292;82,70569
 942,73;13190,787; 2028,125;15304,292;84,08046
 943,28;10963,787; -276,875;12868,292;85,51175
 943,83;11691,487;  358,125;13667,292;85,15456
 944,39;11424,688;  -32,875;13274,292;86,10069
 944,94;11840,188;  354,125;13752,292;85,72861
 945,49;13795,088; 2352,125;15808,292;85,03880
 946,05;10966,388; -449,875;13154,292;83,91740
 946,60;12119,088;  671,125;14429,292;83,20849
 947,15;11251,688; -359,875;13509,292;83,72213
 947,70;12077,888;  289,125;14096,292;85,38147
 948,26;12301,588;  158,125;14388,292;85,33605
 948,81;12136,287; -144,875;14223,292;85,47480
 949,36;12314,888;  -61,875;14432,292;85,39134
 949,92;12947,588;  712,125;15374,292;83,44921
 950,47;12877,888;  335,125;15340,292;83,58962
 951,02;12976,487;  409,125;15632,292;82,55419
 951,57;14178,188; 1198,125;16581,291;84,37836
 952,13;14086,388; 1147,125;16582,291;83,82976
 952,68;13935,388;  824,125;16467,291;83,81464
 953,23;15331,688; 1760,125;17916,291;84,00237
 953,79;14342,088;  613,125;17030,291;83,62566
 954,34;13977,688;  277,125;16610,291;83,88185
 954,89;13802,987;  -91,875;16369,292;84,40995
 955,44;13962,287;  174,125;16711,291;83,37681
 955,99;14347,987;  550,125;16908,291;84,34847
 956,55;14196,588;  275,125;17189,291;82,30653
 957,10;14172,888;   85,125;16983,291;83,36859
 957,65;14398,287;  242,125;17172,291;83,61502
 958,20;14646,188;  357,125;16963,291;86,04673
 958,76;15063,588;  769,125;17622,291;84,81767
 959,31;15103,688;  712,125;17462,291;85,91892
 959,86;14224,388; -360,875;16793,291;85,02461
 960,41;14653,188;   41,125;17286,291;84,73135
 960,96;18543,287; 3647,125;21369,291;84,05385
 961,52;14943,287; -248,875;18055,291;82,99838
 962,07;15835,888;  730,125;18629,291;84,39367
 962,62;15522,287;  664,125;18676,291;82,48959
 963,17;14892,888;  403,125;17967,291;82,49616
 963,72;13911,688; -325,875;17060,291;81,89018
 964,27;14526,588;  452,125;17449,291;82,80476
 964,83;13718,188; -462,875;16772,291;82,27981
 965,38;14404,588;  -81,875;17102,291;84,30123
 965,93;15098,188;  354,125;17947,291;83,80562
 966,48;15427,188;  261,125;18218,291;84,45688
 967,03;16401,588; 1076,125;19294,291;84,12188
 967,58;16336,088;  719,125;19146,291;84,74967
 968,13;16031,388;  551,125;18829,291;84,69265
 968,69;17878,488; 2483,125;20763,291;84,21895
 969,24;15305,487; -104,875;18427,291;83,15467
 969,79;14966,987; -435,875;18195,291;82,67256
 970,34;15407,287;   54,125;18573,291;82,90418
 970,89;16029,987;  640,125;19150,291;83,14276
 971,44;15471,688;   50,125;18821,291;82,15559
 971,99;16634,287; 1290,125;19877,291;82,55246
 972,54;15486,287;  468,125;18279,291;84,31880
 973,09;14518,688; -476,875;17264,291;84,52411
 973,64;14530,787;  -27,875;17501,291;83,05393
 974,20;14913,188;  515,125;17632,291;84,11476
 974,75;15689,688; 1631,125;18478,291;83,44764
 975,30;14494,888;  388,125;17307,291;83,37741
 975,85;19852,488; 5804,125;22738,291;82,95870
 976,40;14430,188;  396,125;17362,291;82,71794
 976,95;14009,987;   -5,875;16656,291;84,11789
 977,50;14471,188;  836,125;17369,291;82,47097
 978,05;14586,287;  722,125;17377,291;83,24241
 978,60;13485,888; -411,875;16189,292;83,71558
 979,15;15493,487; 1598,125;18543,291;82,00192
 979,70;14110,188;  -78,875;17066,291;82,75838
 980,25;14164,088; -197,875;17212,291;82,49182
 980,80;14530,987; -108,875;17622,291;82,56571
 981,35;14796,287;  -43,875;17642,291;83,90830
 981,90;14515,287;  -72,875;17389,291;83,54154
 982,45;15691,487; 1261,125;18761,291;82,45843
 983,00;15435,588; 1295,125;18290,291;83,20285
 983,55;14321,588;  534,125;17069,291;83,38267
 984,10;13723,888;  124,125;16447,291;83,31572
 984,65;13796,188;  340,125;16534,291;83,09204
 985,20;13940,287;  793,125;16462,291;83,90467
 985,75;13769,388;  818,125;16331,292;83,48561
 986,30;12699,987;  155,125;15232,292;83,20437
 986,85;13008,088;  484,125;15489,292;83,46434
 987,40;13293,188;  736,125;15593,292;84,51855
 987,95;12686,588;   75,125;15125,292;83,79617
 988,50;12975,588;  359,125;15319,292;84,33370
 989,05;14125,987; 1114,125;16532,291;84,39306
 989,60;13832,588;  580,125;16316,292;84,21659
 990,15;13616,188;  718,125;16328,292;82,62604
 990,70;14144,987; 1242,125;16714,291;83,39403
 991,25;12773,188;  354,125;15397,292;82,55617
 991,79;11966,787; -184,875;14552,292;82,45589
 992,34;13110,688; 1190,125;15554,292;82,98819
 992,89;15422,388; 3645,125;17730,291;83,61465
 993,44;12237,987;  433,125;14287,292;85,20803
 993,99;11966,287;  -66,875;14150,292;84,63826
 994,54;12503,987;  338,125;14472,292;86,07414
 995,09;12314,188;  107,125;14695,292;83,67784
 995,64;13065,987;  925,125;15623,292;82,60120
 996,19;11791,688; -258,875;14261,292;82,99190
 996,74;12917,487; 1123,125;15235,292;83,57584
 997,28;11547,188;   55,125;14016,292;82,31448
 997,83;10895,188; -285,875;13211,292;82,84007
 998,38;11077,287;   19,125;13457,292;82,28921
 998,93;11153,888;  129,125;13512,292;82,37783
 999,48;10991,487;   54,125;13269,292;82,76371
1000,03;12993,888; 2080,125;14894,292;85,16951
1000,58;10948,388;   91,125;13113,292;83,37524
1001,12;11909,088; 1074,125;14138,292;82,93650
1001,67;11046,287;  427,125;13150,292;83,46320
1002,22;11675,688; 1165,125;13492,292;85,26341
1002,77;11554,688; 1116,125;13265,292;85,91999
1003,32;10402,688;  134,125;12526,292;82,86333
1003,86;11309,688; 1301,125;13531,292;81,83504
1004,41;10615,987;  504,125;12623,292;83,43694
1004,96;10210,088;   87,125;12336,292;82,64205
1005,51;10561,688;  378,125;12608,292;83,26593
1006,06;11686,487; 1755,125;13855,292;82,07624
1006,60; 9737,088;   11,125;11813,292;82,40828
1007,15;10497,888; 1146,125;12651,292;81,28315
1007,70;10113,588;  864,125;12010,292;82,98335
1008,25; 9293,787;  307,125;10974,292;84,24601
1008,80; 8596,787; -355,875;10451,292;82,84005
1009,34; 9804,287; 1102,125;11580,292;83,05042
1009,89; 9367,787;  691,125;11137,292;83,06073
1010,44; 8899,888;  140,125;10669,292;83,19521
1010,99; 9232,588;  498,125;11171,292;81,83572
1011,53; 8534,388; -267,875;10473,292;81,94885
1012,08; 8580,688; -304,875;10436,292;82,72437
1012,63; 9473,987;  262,125;11586,292;81,34693
1013,18; 9568,688;  392,125;11500,292;82,61095
1013,72;10206,688;  527,125;12251,292;82,56077
1014,27;10278,588;   18,125;12386,292;82,95864
1014,82;11539,287;  918,125;13760,292;82,70537
1015,36;11145,688;  205,125;13519,292;82,17234
1015,91;11276,487;  288,125;13880,292;80,84334
1016,46;11341,987;  372,125;13937,292;80,86788
1017,01;10806,287;  -50,875;13365,292;80,92596
1017,55;10307,088; -228,875;12776,292;81,01367
1018,10;10705,188;  531,125;13163,292;80,54091
1018,65;10399,688;  552,125;12678,292;81,20919
1019,19;10497,088;  772,125;12660,292;81,80372
1019,74;10292,388;  791,125;12418,292;81,71606
1020,29;10190,388;  564,125;12404,292;81,30175
1020,83; 9950,388;  518,125;12043,292;81,84057
1021,38;10063,188;  746,125;11989,292;82,86867
1021,93; 9419,888;  240,125;11120,292;84,37152
1022,47; 9161,987;  156,125;10869,292;84,06349
1023,02; 8473,188; -263,875;10112,292;84,20318
1023,56; 9657,688; 1195,125;11431,292;82,67316
1024,11; 8011,487; -380,875; 9862,292;81,93132
1024,66; 8771,888;  548,125;10542,292;82,28562
1025,20; 7766,788; -355,875; 9486,292;82,52921
1025,75; 8166,487;  152,125; 9912,292;82,11296
1026,30; 8340,088;  464,125;10243,292;80,53818
1026,84; 7614,688; -189,875; 9403,292;81,35543
1027,39; 8384,688;  770,125;10111,292;81,51618
1027,93; 7454,587;  -97,875; 9113,292;81,99246
1028,48; 7752,987;  498,125; 9590,292;79,79244
1029,03; 8095,688; 1032,125; 9625,292;82,19976
1029,57; 7203,688;  143,125; 8675,292;82,75228
1030,12; 7103,888;  103,125; 8421,292;84,16232
1030,66; 7339,087;  301,125; 8884,292;81,99727
1031,21; 7444,087;  455,125; 8671,292;85,06354
1031,75; 9426,688; 2320,125;10918,292;82,65206
1032,30; 7661,188;  516,125; 9201,292;82,26742
1032,84; 7684,587;  702,125; 9224,292;81,93295
1033,39; 7035,888;  105,125; 8544,292;82,12615
1033,94; 6543,388;  -35,875; 8007,292;81,79941
1034,48; 7617,288; 1006,125; 9097,292;81,70839
1035,03; 7269,487;  802,125; 8706,292;81,82219
1035,57; 6491,288;  127,125; 7820,292;82,72488
1036,12; 6046,388; -288,875; 7424,292;82,13569
1036,66; 6807,587;  584,125; 8281,292;80,85394
1037,21; 5901,388; -276,875; 7158,292;83,09515
1037,75; 7431,888; 1455,125; 8825,292;81,09399
1038,30; 6466,888;  492,125; 7710,292;82,77397
1038,84; 5833,587;   54,125; 7150,292;81,44485
1039,39; 5372,288; -293,875; 6760,292;80,32363
1039,93; 6169,188;  586,125; 7353,292;82,50222
1040,48; 5850,788;  368,125; 7106,292;81,36728
1041,02; 6270,487;  790,125; 7505,292;81,61171
1041,57; 6000,587;  557,125; 7297,292;80,76154
1042,11; 6379,388; 1125,125; 7556,292;81,69999
1042,66; 5689,487;  337,125; 6962,292;80,78834
1043,20; 4962,888; -311,875; 6083,292;82,48046
1043,74; 5718,288;  523,125; 6780,292;83,02740
1044,29; 6258,388; 1221,125; 7350,292;82,18512
1044,83; 5598,987;  649,125; 6524,292;84,25059
1045,38; 5041,688;  173,125; 6037,292;83,02224
1045,92; 4519,288; -215,875; 5485,292;83,05603
1046,47; 4862,987;  172,125; 5990,292;80,62441
1047,01; 5391,487;  771,125; 6377,292;82,41572
1047,55; 4933,388;  411,125; 5964,292;81,43575
1048,10; 4247,587; -218,875; 5210,292;82,26792
1048,64; 5003,788;  562,125; 6088,292;80,37511
1049,19; 4805,788;  456,125; 5825,292;81,01188
1049,73; 4810,388;  496,125; 5930,292;79,39143
1050,27; 4332,788;  232,125; 5232,292;82,01052
1050,82; 4298,288;  245,125; 5159,292;82,47915
1051,36; 3951,288;  201,125; 4846,292;80,73258
1051,91; 4335,388;  626,125; 5380,292;78,02130
1052,45; 4109,888;  546,125; 5019,292;79,66980
1052,99; 3671,688;   96,125; 4502,292;81,14906
1053,54; 3934,087;  283,125; 4727,292;82,15179
1054,08; 3392,887; -202,875; 4217,292;81,34903
1054,62; 4115,688;  579,125; 4936,292;81,16657
1055,17; 4325,987;  769,125; 5169,292;80,83472
1055,71; 3956,387;  526,125; 4839,292;79,53003
1056,25; 6822,388; 3304,125; 7491,292;84,02491
1056,80; 4216,388;  821,125; 4888,292;83,47981
1057,34; 2986,087; -197,875; 3878,292;78,11168
1057,88; 3319,988;  133,125; 4196,292;78,43298
1058,43; 3840,688;  789,125; 4501,292;82,20435
1058,97; 3538,288;  586,125; 4227,292;81,07739
1059,51; 3676,788;  667,125; 4354,292;81,62535
1060,06; 4332,487; 1361,125; 4911,292;83,69642
1060,60; 3258,988;  261,125; 3742,292;86,11660
1061,14; 3240,887;  231,125; 3830,292;83,62387
1061,68; 3358,488;  377,125; 4127,292;79,49947
1062,23; 5588,288; 2726,125; 6155,292;83,46526
1062,77; 3468,988;  533,125; 4133,292;81,54797
1063,31; 3412,387;  525,125; 3911,292;85,26640
1063,85; 3793,288;  930,125; 4391,292;82,72248
1064,40; 2873,087;   55,125; 3363,292;85,18199
1064,94; 2957,087;  289,125; 3431,292;84,90836
1065,48; 3098,788;  325,125; 3624,292;84,07161
1066,02; 3559,887; 1011,125; 4113,292;82,16072
1066,57; 2747,087;  255,125; 3453,292;77,91846
1067,11; 2780,988;  234,125; 3365,292;81,33909
1067,65; 2992,587;  543,125; 3617,292;79,67890
1068,19; 2986,188;  507,125; 3508,292;82,60329
1068,74; 2613,688;  220,125; 3042,292;84,81294
1069,28; 4365,188; 1932,125; 4846,292;83,49085
1069,82; 2886,087;  581,125; 3312,292;84,39479
1070,36; 2470,788;   64,125; 3002,292;81,91035
1070,90; 6229,487; 3832,125; 6894,292;78,28974
1071,45; 2632,488;  314,125; 3061,292;84,39104
1071,99; 2877,688;  596,125; 3401,292;81,33429
1072,53; 2637,788;  419,125; 3198,292;79,83194
1073,07; 2640,387;  476,125; 3159,292;80,66075
1073,61; 2321,087;  224,125; 2775,292;82,19621
1074,15; 2646,188;  611,125; 3266,292;76,64537
1074,70; 2700,188;  770,125; 3232,292;78,38878
1075,24; 2387,788;  460,125; 2835,292;81,15904
1075,78; 2167,288;   68,125; 2687,292;80,14620
1076,32; 2517,988;  486,125; 3133,292;76,75612
1076,86; 2308,387;  228,125; 2803,292;80,78166
1077,40; 3414,387; 1387,125; 3880,292;81,31275
1077,94; 3069,087; 1000,125; 3477,292;83,52132
1078,49; 1873,488;   -9,875; 2513,292;74,64281
1079,03; 2079,688;  295,125; 2490,292;81,29508
1079,57; 2607,988;  800,125; 2947,292;84,19759
1080,11; 2853,587; 1024,125; 3258,292;81,88567
1080,65; 3066,387; 1170,125; 3412,292;84,57277
1081,19; 4326,487; 2483,125; 4768,292;80,66643
1081,73; 2094,587;  378,125; 2447,292;82,95428
1082,27; 1957,988;  216,125; 2331,292;82,35107
1082,81; 1624,787;  -11,875; 2079,292;78,26552
1083,35; 2002,287;  279,125; 2458,292;79,07437
1083,89; 2117,988;  464,125; 2464,292;82,68623
1084,44; 3548,188; 1871,125; 3955,292;80,46681
1084,98; 2175,188;  486,125; 2597,292;80,00612
1085,52; 1774,688;  272,125; 2125,292;81,08080
1086,06; 1459,488; -143,875; 1915,292;77,86463
1086,60; 1861,488;  342,125; 2208,292;81,41623
1087,14; 1474,188;   -3,875; 1839,292;80,19147
1087,68; 2159,587;  627,125; 2618,292;76,96304
1088,22; 1863,488;  356,125; 2178,292;82,72363
1088,76; 2814,488; 1404,125; 3187,292;79,09314
1089,30; 1368,588;  -76,875; 1752,292;79,02301
1089,84; 1762,988;  418,125; 1995,292;85,27080
1090,38; 2976,587; 1506,125; 3313,292;81,36839
1090,92; 1638,188;  332,125; 1945,292;80,96265
1091,46; 1987,787;  672,125; 2325,292;79,58438
1092,00; 2040,787;  658,125; 2436,292;77,75775
1092,54; 1601,387;  301,125; 1873,292;82,70513
1093,08; 2448,988;  995,125; 2628,292;89,02107
1093,62; 1659,488;  314,125; 2018,292;78,94548
1094,16; 1184,287; -241,875; 1456,292;83,98248
1094,70; 1243,588; -164,875; 1556,292;81,83185
1095,24; 1735,188;  409,125; 2030,292;81,79680
1095,78; 1718,887;  324,125; 2020,292;82,23027
1096,32; 1571,688;  163,125; 1891,292;81,50617
1096,86; 1751,387;  529,125; 2072,292;79,20482
1097,40; 1901,988;  688,125; 2066,292;88,07806
1097,93; 3096,188; 1831,125; 3339,292;83,88081
1098,47; 1958,787;  640,125; 2166,292;86,40356
1099,01; 2211,788; 1012,125; 2489,292;81,21376
1099,55; 1833,588;  635,125; 2034,292;85,65545
1100,09; 1142,488;   38,125; 1413,292;80,30754

