
Integration time [ms]: 1000,000
Averaging Nr. [scans]: 10
Smoothing Nr. [pixels]: 0
Data measured with spectrometer [name]: 1803151U1
Wave   ;Sample   ;Dark     ;Reference;Transmittance
[nm]   ;[counts] ;[counts] ;[counts] ;[%]

 195,95;  566,552;  596,167;  594,203; 0,00000
 196,55;  542,129;  545,765;  655,894;-3,30184
 197,15;  427,253;  439,192;  522,672;-14,30149
 197,76;  738,769;  747,777;  777,409;-30,40123
 198,36;  440,338;  453,259;  499,529;-27,92572
 198,96;  652,375;  669,874;  722,831;-33,04155
 199,56;  535,781;  538,212;  575,340;-6,54783
 200,16;  437,838;  485,497;  519,294;-141,01364
 200,76;  337,503;  408,256;  392,734; 0,00000
 201,36;  767,544;  799,868;  814,248;-224,78852
 201,96;  351,770;  432,973;  397,088; 0,00000
 202,56;  496,508;  553,612;  564,860;-507,68173
 203,16;  586,856;  611,365;  679,414;-36,01739
 203,76;  452,879;  497,072;  577,043;-55,26118
 204,36;  353,989;  405,586;  413,826;-626,18823
 204,96;  525,750;  533,631;  656,226;-6,42914
 205,56;  493,488;  508,290;  474,146; 0,00000
 206,16;  393,586;  402,050;  388,849; 0,00000
 206,76;  460,697;  473,864;  445,632; 0,00000
 207,36;  641,310;  646,014;  681,391;-13,29826
 207,96;  638,574;  623,758;  779,003; 9,54341
 208,56;  501,492;  530,884;  580,037;-59,79628
 209,16;  423,259;  476,225;  539,860;-83,23549
 209,76;  357,601;  402,020;  425,757;-187,13364
 210,36;  413,494;  438,524;  429,334; 0,00000
 210,96;  484,183;  486,090;  563,403;-2,46661
 211,56;  483,984;  492,810;  580,551;-10,05915
 212,16; 1037,281;  961,374; 1212,574;30,21760
 212,76;  467,188;  472,990;  575,146;-5,67973
 213,36;  586,252;  612,609;  721,289;-24,25268
 213,96;  542,684;  570,510;  601,551;-89,64126
 214,56;  514,819;  517,971;  600,260;-3,82977
 215,16;  476,097;  498,964;  500,632;-1371,68171
 215,76;  881,179;  879,472; 1041,043; 1,05648
 216,36;  361,624;  394,727;  379,386; 0,00000
 216,96;  740,068;  738,457;  821,260; 1,94540
 217,56;  417,543;  429,435;  479,803;-23,61017
 218,16;  538,022;  583,444;  578,003; 0,00000
 218,75;  356,707;  384,416;  446,180;-44,86390
 219,35;  393,628;  418,145;  535,746;-20,84784
 219,95;  555,878;  535,776;  657,363;16,53277
 220,55;  497,621;  491,549;  588,323; 6,27502
 221,15;  680,506;  671,059;  761,266;10,47284
 221,75;  462,585;  454,292;  564,935; 7,49514
 222,35;  548,373;  549,096;  522,769; 0,00000
 222,95;  739,502;  730,240;  880,906; 6,14689
 223,55;  677,116;  697,511;  763,814;-30,75905
 224,15;  609,072;  591,680;  720,940;13,45464
 224,75;  560,033;  543,583;  585,254;39,47515
 225,35;  469,555;  462,570;  535,734; 9,54725
 225,95;  632,717;  622,531;  747,963; 8,12114
 226,55;  425,263;  467,744;  553,220;-49,69852
 227,15;  426,053;  466,529;  501,437;-115,95309
 227,75;  715,402;  692,540;  843,906;15,10336
 228,34;  478,117;  494,693;  599,197;-15,86115
 228,94;  577,201;  595,120;  643,757;-36,84391
 229,54;  408,520;  449,266;  447,940; 0,00000
 230,14;  523,261;  539,903;  527,923; 0,00000
 230,74;  421,431;  465,581;  463,723; 0,00000
 231,34;  426,686;  464,288;  501,614;-100,73795
 231,94;  526,846;  567,771;  611,780;-92,99155
 232,54;  427,780;  441,592;  455,191;-101,56136
 233,14;  542,434;  562,079;  627,934;-29,83039
 233,74;  401,833;  446,159;  476,786;-144,72806
 234,33;  412,561;  448,203;  511,923;-55,93651
 234,93;  448,561;  459,666;  494,157;-32,19526
 235,53;  449,904;  475,318;  521,969;-54,47906
 236,13;  518,506;  529,496;  626,031;-11,38508
 236,73;  508,351;  525,747;  565,054;-44,25514
 237,33;  518,808;  497,499;  638,563;15,10601
 237,93;  773,845;  753,413;  922,866;12,05776
 238,53;  451,115;  473,953;  555,900;-27,86852
 239,12;  853,760;  805,846;  988,009;26,30301
 239,72;  680,463;  695,281;  762,986;-21,88685
 240,32;  273,185;  348,205;  338,231; 0,00000
 240,92;  329,342;  388,715;  400,654;-497,29057
 241,52;  424,806;  423,196;  439,031;10,16368
 242,12;  611,337;  621,339;  636,380;-66,49826
 242,72;  423,027;  424,925;  466,597;-4,55511
 243,31;  403,722;  416,207;  448,237;-38,97622
 243,91;  511,607;  521,216;  669,180;-6,49456
 244,51;  343,628;  383,883;  406,511;-177,89332
 245,11;  947,193;  908,604; 1029,186;32,00250
 245,71;  658,505;  638,138;  791,117;13,31314
 246,31;  730,883;  708,090;  876,403;13,54201
 246,90;  812,928;  773,683;  913,511;28,06642
 247,50;  360,631;  424,681;  414,723; 0,00000
 248,10;  484,308;  505,574;  511,094;-385,25882
 248,70;  333,548;  343,653;  363,163;-51,79965
 249,30;  444,077;  500,351;  547,894;-118,36493
 249,90;  356,650;  398,027;  397,906; 0,00000
 250,49;  459,316;  484,948;  525,580;-63,08435
 251,09;  407,429;  439,603;  429,660; 0,00000
 251,69;  525,396;  558,002;  647,397;-36,47372
 252,29;  501,670;  511,298;  644,557;-7,22444
 252,89;  447,363;  493,319;  540,751;-96,88810
 253,48;  442,328;  450,683;  477,511;-31,14218
 254,08;  323,901;  350,820;  353,757;-916,59757
 254,68;  283,934;  325,779;  331,934;-679,79227
 255,28;  471,685;  519,468;  533,466;-341,35574
 255,88;  469,201;  444,120;  512,757;36,54049
 256,47;  320,845;  357,913;  424,866;-55,36423
 257,07;  459,348;  499,811;  537,077;-108,57810
 257,67;  577,717;  561,993;  717,197;10,13139
 258,27;  499,837;  508,677;  559,146;-17,51555
 258,86;  607,777;  590,456;  722,214;13,14578
 259,46;  420,063;  440,019;  462,751;-87,78789
 260,06;  444,784;  509,348;  508,317; 0,00000
 260,66;  423,892;  443,022;  471,803;-66,46591
 261,26;  699,747;  690,191;  795,929; 9,03779
 261,85;  289,161;  318,141;  343,688;-113,43733
 262,45;  452,609;  472,794;  565,243;-21,83429
 263,05;  451,673;  479,996;  590,769;-25,56780
 263,65;  292,395;  337,620;  333,014; 0,00000
 264,24;  658,274;  617,958;  733,003;35,04333
 264,84;  552,818;  547,188;  630,877; 6,72696
 265,44;  583,479;  576,572;  642,043;10,54955
 266,04;  370,063;  414,019;  414,751; 0,00000
 266,63;  451,062;  460,424;  582,072;-7,69557
 267,23;  259,127;  337,520;  306,277; 0,00000
 267,83;  464,904;  458,318;  566,969; 6,06106
 268,42;  361,203;  371,098;  463,820;-10,67239
 269,02;  666,701;  659,716;  753,437; 7,45352
 269,62;  466,819;  478,609;  549,026;-16,74214
 270,22;  254,182;  294,370;  324,254;-134,47714
 270,81;  451,591;  479,726;  588,123;-25,95552
 271,41;  405,580;  471,987;  547,871;-87,51090
 272,01;  439,044;  475,493;  486,717;-324,73538
 272,61;  430,627;  435,525;  504,597;-7,09144
 273,20;  523,265;  550,097;  581,814;-84,59821
 273,80;  364,165;  391,959;  394,049;-1330,33990
 274,40;  285,071;  310,355;  304,471; 0,00000
 274,99;  422,766;  449,617;  446,963; 0,00000
 275,59;  498,162;  510,361;  570,837;-20,17229
 276,19;  566,973;  568,633;  710,534;-1,16990
 276,78;  460,430;  437,823;  529,809;24,57645
 277,38;  349,456;  350,427;  391,649;-2,35716
 277,98;  376,902;  397,436;  387,586; 0,00000
 278,57;  349,927;  349,225;  388,597; 1,78242
 279,17;  435,668;  428,320;  560,494; 5,55979
 279,77;  975,339;  909,717; 1052,443;45,97771
 280,37;  385,613;  429,788;  428,134; 0,00000
 280,96;  322,361;  367,041;  382,688;-285,54475
 281,56;  271,352;  285,167;  325,203;-34,50558
 282,16;  340,738;  375,035;  381,060;-569,21296
 282,75;  330,778;  326,676;  371,363; 9,17865
 283,35;  389,072;  420,713;  503,386;-38,27276
 283,95;  368,453;  398,325;  398,117; 0,00000
 284,54;  357,221;  397,524;  443,854;-86,99133
 285,14;  397,218;  413,926;  481,643;-24,67361
 285,73;  556,143;  521,073;  586,569;53,54591
 286,33;  309,796;  338,540;  416,163;-37,02974
 286,93;  317,518;  360,326;  435,643;-56,83763
 287,52;  423,294;  470,299;  513,866;-107,89494
 288,12;  479,642;  507,090;  609,186;-26,88530
 288,72;  515,590;  519,581;  586,505;-5,96433
 289,31;  498,183;  493,927;  616,168; 3,48096
 289,91;  665,765;  624,159;  754,049;32,03168
 290,51;  431,631;  410,081;  564,723;13,93537
 291,10;  508,354;  499,687;  557,351;15,02908
 291,70;  310,650;  352,764;  345,671; 0,00000
 292,29;  467,058;  450,805;  528,711;20,86157
 292,89;  390,334;  391,079;  477,934;-0,85771
 293,49;  469,038;  469,535;  531,060;-0,80742
 294,08;  222,409;  256,832;  281,008;-142,38357
 294,68;  325,207;  348,154;  382,946;-65,95687
 295,28;  412,262;  437,061;  580,837;-17,24861
 295,87;  389,564;  370,601;  441,134;26,88476
 296,47;  400,759;  405,663;  467,626;-7,91514
 297,06;  468,230;  462,761;  529,574; 8,18544
 297,66;  315,214;  333,008;  247,283; 0,00000
 298,26;  188,889;  227,824;  168,591; 0,00000
 298,85;  472,691;  458,764;  568,889;12,64676
 299,45;  383,322;  393,907;  435,237;-25,60881
 300,04;  400,983;  391,090;  448,403;17,26129
 300,64;  430,421;  387,049;  517,323;33,29335
 301,23;  448,972;  480,613;  508,386;-113,92961
 301,83;  452,686;  433,988;  492,614;31,89355
 302,43;  405,986;  432,225;  515,380;-31,55553
 303,02;  336,748;  356,753;  447,163;-22,12807
 303,62;  391,550;  384,089;  488,140; 7,17088
 304,21;  543,939;  513,479;  725,677;14,35448
 304,81;  546,729;  509,803;  617,660;34,23587
 305,40;  398,789;  395,048;  520,060; 2,99249
 306,00;  372,377;  385,051;  462,894;-16,28155
 306,59;  453,345;  450,213;  576,866; 2,47306
 307,19;  286,623;  309,364;  330,151;-109,40107
 307,79;  393,712;  404,392;  402,454; 0,00000
 308,38;  432,676;  400,961;  536,535;23,39342
 308,98;  309,061;  310,803;  375,923;-2,67579
 309,57;  308,185;  331,505;  367,231;-65,27680
 310,17;  392,360;  485,429;  505,516;-463,33283
 310,76;  434,798;  530,164;  513,968; 0,00000
 311,36;  351,160;  415,116;  465,220;-127,64856
 311,95;  295,990;  300,506;  382,974;-5,47592
 312,55;  660,009;  691,727;  756,688;-48,82648
 313,14;  259,549;  272,607;  347,757;-17,37513
 313,74;  259,936;  291,857;  318,997;-117,61380
 314,33;  440,752;  412,709;  537,289;22,50958
 314,93;  508,992;  481,184;  669,037;14,80315
 315,52;  471,839;  473,355;  576,208;-1,47375
 316,12;  366,541;  365,295;  466,506; 1,23125
 316,71; 1175,505; 1082,934; 1388,797;30,26568
 317,31;  193,413;  244,550;  258,368;-370,06821
 317,90;  273,830;  325,918;  414,488;-58,80976
 318,50;  264,936;  298,157;  308,997;-306,45348
 319,09;  241,496;  243,602;  274,397;-6,83803
 319,69;  376,387;  366,246;  451,528;11,89126
 320,28;  422,205;  430,076;  540,883;-7,10386
 320,88;  358,294;  358,224;  455,334; 0,07222
 321,47;  250,636;  284,657;  316,997;-105,19608
 322,07;  285,128;  327,040;  356,426;-142,62951
 322,66;  294,101;  283,278;  337,671;19,89838
 323,26;  317,560;  304,546;  461,009; 8,31786
 323,85;  352,713;  390,250;  466,368;-49,31438
 324,45;  221,152;  250,967;  311,203;-49,49640
 325,04;  266,131;  273,981;  349,723;-10,36416
 325,64;  335,735;  373,737;  464,848;-41,70895
 326,23;  308,530;  325,461;  372,574;-35,93648
 326,83;  480,354;  461,487;  577,351;16,28319
 327,42;  342,289;  352,024;  446,591;-10,29390
 328,01;  354,546;  366,771;  380,780;-87,26299
 328,61;  140,821;  201,324;  201,854; 0,00000
 329,20;  476,712;  441,892;  600,454;21,95961
 329,80;  206,680;  219,154;  300,426;-15,34878
 330,39;  324,430;  340,261;  390,574;-31,46460
 330,99;  258,291;  246,164;  302,889;21,37908
 331,58;  238,788;  291,466;  309,677;-289,25798
 332,17;  421,001;  415,478;  576,671; 3,42657
 332,77;  584,670;  551,998;  695,557;22,75900
 333,36;  326,939;  319,817;  429,443; 6,49668
 333,96;  172,181;  226,650;  254,106;-198,38537
 334,55;  247,623;  244,927;  312,386; 3,99754
 335,15;  252,105;  281,076;  306,883;-112,26383
 335,74;  320,203;  324,398;  372,820;-8,66479
 336,33;  251,188;  273,266;  372,677;-22,20858
 336,93;  311,957;  342,885;  418,563;-40,86878
 337,52;  345,152;  364,367;  439,203;-25,67560
 338,12;  360,754;  365,387;  376,351;-42,26099
 338,71;  312,575;  325,574;  427,831;-12,71114
 339,30;  492,749;  469,169;  573,991;22,49555
 339,90;  246,828;  296,678;  320,191;-212,00845
 340,49;  314,624;  308,185;  411,300; 6,24528
 341,08;  310,483;  360,527;  417,168;-88,35445
 341,68;  328,488;  338,766;  342,677;-262,77045
 342,27;  430,301;  434,478;  491,671;-7,30261
 342,87;  316,506;  336,534;  389,797;-37,60280
 343,46;  514,027;  487,625;  678,597;13,82491
 344,05;  368,856;  381,965;  426,414;-29,49324
 344,65;  451,127;  454,925;  565,597;-3,43195
 345,24;  431,848;  421,711;  502,077;12,61387
 345,83;  480,185;  450,530;  579,700;22,95806
 346,43;  235,534;  251,979;  330,934;-20,82813
 347,02;  232,150;  241,731;  342,226;-9,53463
 347,61;  193,894;  264,100;  278,866;-475,45350
 348,21;  504,103;  470,398;  651,820;18,57789
 348,80;  150,675;  181,974;  214,831;-95,25303
 349,40;  246,031;  257,281;  293,723;-30,87087
 349,99;  264,968;  274,920;  362,494;-11,36331
 350,58;  301,662;  351,799;  346,603; 0,00000
 351,18;  352,209;  348,394;  391,243; 8,90225
 351,77;  263,333;  292,759;  359,786;-43,90159
 352,36;  236,701;  233,120;  312,757; 4,49575
 352,96;  174,835;  178,899;  174,083; 0,00000
 353,55;  403,211;  401,210;  401,071; 0,00000
 354,14;  312,649;  308,069;  425,991; 3,88421
 354,73;  173,944;  179,493;  216,717;-14,90640
 355,33;  254,522;  257,207;  358,237;-2,65690
 355,92;  308,135;  322,637;  350,848;-51,40316
 356,51;  180,846;  189,609;  217,546;-31,36537
 357,11;  217,291;  224,301;  350,654;-5,54845
 357,70;  327,220;  325,642;  389,471; 2,47236
 358,29;  263,096;  239,940;  383,163;16,16807
 358,89;  277,676;  258,531;  329,746;26,88368
 359,48;  273,142;  261,628;  296,951;32,59511
 360,07;  470,811;  425,010;  566,071;32,46866
 360,66;  315,221;  329,199;  445,385;-12,03138
 361,26;  472,251;  465,460;  584,351; 5,71191
 361,85;  325,337;  280,010;  397,591;38,55000
 362,44;  357,941;  316,903;  448,482;31,18881
 363,04;  305,700;  263,709;  374,585;37,87191
 363,63;  282,345;  251,259;  326,608;41,25634
 364,22;  404,364;  339,048;  515,876;36,93769
 364,81;  363,236;  275,403;  479,739;42,98452
 365,41;  504,539;  381,101;  603,951;55,39072
 366,00;  281,179;  144,618;  338,785;70,33158
 366,59;  559,877;  384,102;  706,957;54,44392
 367,18;  835,102;  611,786;  989,648;59,09975
 367,78;  458,868;  257,228;  529,471;74,06637
 368,37;  428,700;  259,171;  499,820;70,44666
 368,96;  399,061;  231,074;  497,134;63,13888
 369,55;  531,470;  353,911;  630,854;64,11390
 370,15;  417,807;  287,287;  517,391;56,72222
 370,74;  534,034;  414,012;  595,380;66,17628
 371,33;  467,828;  359,678;  554,191;55,60048
 371,92;  608,138;  507,468;  683,505;57,18705
 372,51;  413,394;  358,475;  534,397;31,21770
 373,11;  290,113;  257,321;  342,579;38,46220
 373,70;  281,929;  237,611;  348,637;39,91665
 374,29;  244,004;  199,264;  293,711;47,37002
 374,88;  405,222;  305,757;  492,299;53,32003
 375,48;  368,099;  247,051;  495,671;48,68790
 376,07;  427,352;  307,842;  539,734;51,53690
 376,66;  304,947;  192,304;  413,225;50,98773
 377,25;  250,303;  157,869;  267,031;84,67598
 377,84;  564,200;  441,671;  697,820;47,83509
 378,44;  464,517;  372,939;  557,939;49,50171
 379,03;  301,541;  209,508;  359,802;61,23483
 379,62;  294,777;  232,664;  378,191;42,68119
 380,21;  215,382;  182,440;  298,465;28,39188
 380,80;  312,540;  251,746;  341,568;67,68327
 381,39;  174,740;  141,246;  214,568;45,68146
 381,99;  345,458;  273,076;  419,922;49,29101
 382,58;  505,708;  381,907;  536,540;80,06150
 383,17;  543,127;  407,596;  634,808;59,64958
 383,76;  644,872;  520,051;  781,151;47,80582
 384,35;  526,228;  413,216;  647,957;48,14341
 384,94;  639,174;  510,329;  819,214;41,71298
 385,54;  531,664;  433,572;  640,345;47,43956
 386,13;  292,342;  234,224;  318,631;68,85521
 386,72;  457,819;  362,859;  545,088;52,10992
 387,31;  342,003;  274,169;  413,031;48,84994
 387,90;  286,370;  231,248;  333,620;53,84455
 388,49;  286,114;  216,241;  354,728;50,45475
 389,08;  621,917;  510,239;  758,939;44,90477
 389,68;  396,936;  300,190;  483,442;52,79409
 390,27;  375,482;  276,103;  458,700;54,42562
 390,86;  380,266;  288,992;  531,494;37,63817
 391,45;  364,776;  272,407;  379,277;86,43139
 392,04;  568,961;  418,737;  637,368;68,71143
 392,63;  241,353;  154,100;  320,648;52,38902
 393,22;  296,266;  219,592;  362,494;53,65454
 393,81;  306,297;  186,435;  364,843;67,18428
 394,41;  277,543;  225,044;  350,779;41,75408
 395,00;  282,531;  210,651;  334,934;57,83570
 395,59;  178,333;  109,192;  228,231;58,08293
 396,18;  327,158;  255,576;  435,922;39,69144
 396,77;  361,400;  228,433;  454,054;58,93375
 397,36;  732,486;  560,463;  851,145;59,17883
 397,95;  387,267;  284,813;  447,642;62,92091
 398,54;  254,373;  160,509;  298,065;68,23677
 399,13;  464,103;  335,031;  550,265;59,96811
 399,72;  201,364;  123,672;  244,345;64,38240
 400,31;  322,000;  230,409;  366,585;67,25905
 400,90;  420,372;  279,551;  563,151;49,65478
 401,50;  388,380;  297,462;  419,402;74,55929
 402,09;  468,188;  343,999;  495,122;82,17751
 402,68;  438,440;  322,546;  506,568;62,97860
 403,27;  292,558;  169,076;  328,922;77,25048
 403,86;  334,572;  220,388;  403,917;62,21564
 404,45;  262,745;  139,526;  313,163;70,96362
 405,04;  512,578;  331,947;  629,574;60,69048
 405,63;  393,349;  234,044;  453,523;72,58336
 406,22;  282,586;  173,459;  379,825;52,88048
 406,81;  388,343;  258,586;  495,865;54,68520
 407,40;  485,271;  308,593;  622,237;56,33076
 407,99;  512,183;  382,161;  706,614;40,07436
 408,58;  540,748;  409,062;  613,140;64,52734
 409,17;  594,763;  421,014;  727,431;56,70354
 409,76;  541,128;  408,753;  628,722;60,17871
 410,35;  332,584;  181,943;  444,997;57,26638
 410,94;  443,366;  282,092;  539,494;62,65431
 411,53;  558,824;  422,335;  713,362;46,89888
 412,12;  403,838;  228,172;  454,825;77,50403
 412,71;  338,130;  187,531;  396,785;71,96933
 413,30;  352,828;  223,116;  430,957;62,40939
 413,89;  263,603;  128,169;  322,031;69,86102
 414,48;  304,490;  174,519;  372,271;65,72399
 415,07;  537,648;  339,087;  604,608;74,78163
 415,66;  364,607;  210,049;  463,625;60,95131
 416,25;  595,942;  401,128;  720,951;60,91293
 416,84;  690,793;  522,717;  873,482;47,91681
 417,43;  362,774;  224,229;  435,214;65,66585
 418,02;  437,358;  260,476;  491,922;76,42466
 418,61;  381,788;  207,299;  454,122;70,69404
 419,20;  367,964;  211,514;  469,431;60,65878
 419,79;  363,505;  182,209;  418,328;76,78159
 420,38;  431,798;  258,193;  551,757;59,13700
 420,97;  634,615;  426,266;  786,197;57,88578
 421,56;  406,417;  220,044;  506,260;65,11621
 422,15;  358,052;  195,180;  404,500;77,81018
 422,74;  624,783;  432,261;  744,614;61,63618
 423,33;  484,192;  276,559;  566,568;71,59518
 423,92;  559,624;  351,798;  661,597;67,08419
 424,51;  425,997;  250,135;  563,843;56,05915
 425,10;  452,790;  243,519;  519,271;75,89084
 425,69;  380,926;  184,038;  414,894;85,28612
 426,28;  419,510;  211,890;  530,923;65,07786
 426,87;  476,469;  245,115;  545,174;77,10279
 427,46;  823,077;  551,689;  901,660;77,54597
 428,04;  356,242;  132,690;  425,186;76,42912
 428,63;  486,482;  240,165;  570,934;74,46809
 429,22;  389,268;  193,533;  545,791;55,56576
 429,81;  546,019;  284,884;  668,557;68,06187
 430,40;  346,968;  101,795;  400,026;82,20919
 430,99;  573,372;  311,551;  658,151;75,53979
 431,58;  787,657;  534,518;  889,008;71,40935
 432,17;  732,253;  478,063;  818,883;74,58209
 432,76;  578,073;  322,671;  739,300;61,30207
 433,35;  614,963;  336,457;  696,517;77,34983
 433,94;  764,065;  502,035;  855,580;74,11502
 434,52;  352,388;  107,203;  449,443;71,64120
 435,11;  536,897;  255,460;  592,311;83,54941
 435,70;  456,476;  188,469;  574,511;69,42433
 436,29;  371,526;  126,638;  414,894;84,95509
 436,88;  626,225;  360,118;  738,745;70,28205
 437,47;  570,411;  270,810;  689,071;71,63003
 438,06;  555,032;  241,796;  611,551;84,71453
 438,65; 1152,753;  836,900; 1372,648;58,95549
 439,23;  442,022;  180,220;  650,534;55,66537
 439,82;  684,443;  387,986;  846,865;64,60449
 440,41;  605,504;  276,014;  701,648;77,41160
 441,00;  579,265;  284,335;  693,580;72,06685
 441,59;  660,269;  352,790;  723,705;82,89724
 442,18;  568,146;  254,446;  695,311;71,15550
 442,77;  476,689;  148,824;  581,591;75,76010
 443,35;  796,555;  429,003;  974,180;67,41895
 443,94;  695,009;  356,327;  803,688;75,70666
 444,53;  496,290;  161,819;  530,271;90,77722
 445,12;  691,924;  343,460;  869,831;66,20120
 445,71;  729,959;  357,101;  891,391;69,78559
 446,30;  844,854;  421,220;  953,797;79,54423
 446,88;  536,204;  157,151;  622,414;81,47072
 447,47;  702,091;  292,239;  804,420;80,02091
 448,06;  592,711;  196,310;  728,071;74,54485
 448,65;  728,212;  331,925;  880,900;72,18682
 449,24;  826,325;  407,618; 1024,745;67,84775
 449,82;  626,513;  250,325;  763,900;73,24882
 450,41;  645,450;  232,802;  716,437;85,32221
 451,00;  701,526;  248,038;  805,894;81,29126
 451,59;  556,831;  112,776;  613,403;88,69991
 452,18;  669,827;  200,258;  811,043;76,87967
 452,76;  632,884;  170,243;  746,997;80,21471
 453,35;  720,142;  246,328;  805,951;84,66656
 453,94;  681,021;  198,262;  805,620;79,48511
 454,53;  744,715;  266,366;  861,197;80,41760
 455,12;  828,080;  297,025;  996,637;75,90713
 455,70;  698,552;  166,742;  734,734;93,62987
 456,29;  781,100;  233,896;  941,288;77,35513
 456,88; 1010,761;  398,879; 1129,454;83,75342
 457,47; 1122,917;  464,706; 1355,494;73,89084
 458,05;  855,678;  279,247;  955,574;85,22966
 458,64;  841,392;  209,322; 1064,803;73,88478
 459,23;  758,872;  156,951;  883,151;82,88638
 459,82; 1043,796;  357,877; 1204,928;80,97726
 460,40;  915,442;  243,328; 1118,951;76,75833
 460,99;  892,306;  215,834; 1037,797;82,29951
 461,58;  981,228;  281,378; 1102,191;85,26304
 462,17;  741,504;   57,151;  873,414;83,83978
 462,75;  835,824;  121,860;  959,831;85,20150
 463,34;  948,676;  220,669; 1152,511;78,12558
 463,93; 1013,165;  268,135; 1160,580;83,48189
 464,52; 1052,195;  253,820; 1195,014;84,82576
 465,10;  990,570;  210,911; 1165,854;81,64455
 465,69; 1174,664;  346,239; 1306,900;86,23488
 466,28;  937,778;   92,609; 1089,808;84,75430
 466,86; 1208,870;  312,573; 1328,088;88,26030
 467,45;  910,542;   81,828; 1065,951;84,20833
 468,04;  921,892;   80,259;  985,568;92,96632
 468,63; 1096,349;  220,844; 1242,523;85,69280
 469,21; 1195,301;  263,316; 1380,437;83,42743
 469,80; 1302,204;  351,951; 1395,414;91,06727
 470,39; 1265,351;  307,547; 1444,054;84,27615
 470,97; 1111,546;  159,146; 1266,311;86,02148
 471,56; 1127,993;  150,117; 1226,483;90,84977
 472,15; 1290,057;  273,723; 1493,328;83,33298
 472,73; 1177,063;  167,157; 1295,517;89,50209
 473,32; 1378,178;  296,509; 1549,808;86,30574
 473,91; 1149,074;   97,591; 1201,448;95,25534
 474,49; 1487,942;  365,090; 1639,186;88,12933
 475,08; 1256,024;  131,422; 1436,066;86,19996
 475,67; 1321,620;  204,104; 1415,706;92,23461
 476,25; 1557,089;  362,124; 1729,591;87,38526
 476,84; 1308,185;  109,405; 1442,231;89,94267
 477,43; 1426,301;  250,853; 1586,203;88,02550
 478,01; 1458,753;  277,663; 1713,883;82,23605
 478,60; 1307,946;   77,609; 1429,546;91,00554
 479,19; 1479,141;  222,633; 1732,271;83,23238
 479,77; 1445,664;  168,777; 1693,666;83,73640
 480,36; 1478,736;  163,694; 1663,763;87,66542
 480,94; 1491,904;  141,914; 1595,648;92,86362
 481,53; 1626,705;  244,272; 1864,563;85,32009
 482,12; 1662,417;  264,868; 1898,729;85,53662
 482,70; 1617,637;  201,114; 1772,911;90,12121
 483,29; 1541,612;  131,030; 1614,220;95,10459
 483,88; 1591,561;  121,941; 1744,688;90,56368
 484,46; 1584,881;  142,807; 1844,020;84,76743
 485,05; 1607,061;  178,979; 1862,454;84,82939
 485,63; 1794,914;  327,746; 1981,048;88,74165
 486,22; 1726,656;  228,365; 1938,414;87,61681
 486,81; 1575,715;  114,066; 1769,197;88,31016
 487,39; 1699,000;  127,800; 1900,609;88,62770
 487,98; 1701,983;  135,527; 1878,168;89,88972
 488,56; 1799,112;  238,268; 2083,985;84,56569
 489,15; 1861,640;  273,950; 2084,888;87,67222
 489,74; 2011,783;  367,227; 2288,168;85,61195
 490,32; 1799,153;  191,762; 2045,883;86,69291
 490,91; 1779,630;  111,018; 2030,488;86,93088
 491,49; 1801,981;  123,807; 2015,020;88,73536
 492,08; 1885,712;  198,468; 1982,985;94,54901
 492,66; 2119,587;  394,683; 2373,294;87,17750
 493,25; 1846,612;  127,730; 2042,220;89,78275
 493,84; 2022,604;  263,514; 2352,648;84,20188
 494,42; 1974,993;  195,742; 2225,951;87,63880
 495,01; 2049,159;  302,059; 2338,305;85,80005
 495,59; 2023,432;  198,838; 2206,637;90,87531
 496,18; 1874,168;  102,295; 2154,026;86,35992
 496,76; 1998,414;  190,646; 2179,048;90,91558
 497,35; 1922,892;   94,122; 2080,803;92,05153
 497,93; 2114,748;  267,987; 2369,608;87,87316
 498,52; 1991,363;  125,657; 2147,517;92,27670
 499,10; 2168,767;  253,537; 2386,111;89,80836
 499,69; 2358,441;  439,470; 2646,037;86,96635
 500,27; 2373,022;  444,344; 2663,003;86,92992
 500,86; 2363,449;  395,869; 2612,991;88,74478
 501,44; 2430,965;  492,197; 2706,814;87,54415
 502,03; 2156,757;  139,585; 2333,563;91,94130
 502,61; 2189,401;  193,516; 2474,437;87,50349
 503,20; 2050,568;   77,357; 2241,260;91,18759
 503,78; 2266,282;  255,870; 2564,254;87,09173
 504,37; 2099,534;  113,079; 2290,934;91,21151
 504,95; 2502,416;  496,486; 2901,345;83,41152
 505,54; 2058,149;   82,769; 2356,991;86,85960
 506,12; 2357,311;  281,772; 2689,306;86,21017
 506,71; 2279,807;  134,316; 2492,180;90,99298
 507,29; 2291,553;  132,025; 2517,117;90,54278
 507,88; 2314,758;  128,705; 2497,711;92,27720
 508,46; 2170,460;   30,321; 2350,540;92,23866
 509,05; 2335,064;  130,639; 2490,900;93,39751
 509,63; 2760,160;  489,821; 3104,540;86,82917
 510,22; 2349,151;  130,885; 2626,820;88,87516
 510,80; 2797,975;  500,711; 3053,597;89,98696
 511,39; 2698,365;  406,259; 3042,049;86,96089
 511,97; 2481,926;  242,600; 2745,128;89,48255
 512,55; 2910,644;  554,931; 3283,483;86,33566
 513,14; 2459,686;  122,288; 2717,614;90,06181
 513,72; 2655,277;  297,551; 3072,894;84,95260
 514,31; 2687,202;  319,136; 3014,586;87,85422
 514,89; 2758,223;  387,002; 3156,917;85,60628
 515,48; 2683,224;  231,185; 3001,300;88,51760
 516,06; 2839,234;  286,641; 3017,169;93,48350
 516,65; 2634,649;  183,907; 2999,757;87,03383
 517,23; 2473,421;   12,724; 2762,854;89,47566
 517,81; 2641,751;  157,247; 2910,054;90,25349
 518,40; 2821,557;  239,785; 3045,563;92,01626
 518,98; 2796,539;  270,492; 3025,974;91,67350
 519,57; 2737,871;  142,555; 2978,471;91,51596
 520,15; 2644,922;   85,607; 2875,237;91,74389
 520,73; 2815,317;  183,906; 3031,494;92,40841
 521,32; 2907,711;  235,310; 3241,071;88,90928
 521,90; 2772,162;  127,399; 3157,603;87,28003
 522,49; 3328,760;  602,083; 3710,774;87,71141
 523,07; 2847,408;  113,074; 3203,094;88,48918
 523,65; 3229,736;  453,957; 3598,997;88,25894
 524,24; 3041,913;  256,588; 3427,134;87,85000
 524,82; 3054,820;  262,904; 3435,706;87,99529
 525,40; 3107,749;  271,269; 3623,991;84,60230
 525,99; 2900,589;    3,486; 3256,826;89,05013
 526,57; 3112,565;  165,559; 3463,049;89,37120
 527,16; 3269,320;  266,129; 3757,174;86,02556
 527,74; 3033,514;   60,270; 3356,517;90,20088
 528,32; 3274,921;  278,824; 3874,854;83,31679
 528,91; 3142,122;   53,307; 3557,237;88,15288
 529,49; 3256,640;  135,112; 3620,123;89,57011
 530,07; 3335,598;  163,880; 3616,460;91,86517
 530,66; 3239,486;   45,650; 3485,849;92,83871
 531,24; 3367,461;   97,441; 3692,688;90,95395
 531,82; 3337,654;  104,583; 3691,031;90,14688
 532,41; 3490,000;  166,158; 3840,523;90,46033
 532,99; 3454,361;  128,241; 3909,688;87,95891
 533,57; 3493,248;  154,587; 3928,608;88,46429
 534,16; 3635,399;  191,638; 3922,374;92,30782
 534,74; 3610,893;   94,742; 3900,951;92,37934
 535,32; 3874,023;  346,564; 4316,151;88,86211
 535,90; 3877,330;  221,161; 4334,574;88,88406
 536,49; 3752,988;   82,766; 4318,677;86,64539
 537,07; 3670,848;    6,987; 4105,608;89,39253
 537,65; 4182,391;  406,301; 4641,654;89,15642
 538,24; 3884,192;   45,584; 4272,037;90,82339
 538,82; 4009,248;  109,449; 4459,843;89,64244
 539,40; 4350,480;  314,354; 4753,426;90,92275
 539,99; 4253,776;  253,031; 4655,746;90,86997
 540,57; 4157,347;  106,029; 4555,694;91,04771
 541,15; 4375,841;  313,470; 4972,037;87,20215
 541,73; 4394,357;  235,181; 5029,243;86,75684
 542,32; 4287,734;   59,979; 4876,934;87,76820
 542,90; 4572,787;  180,246; 5197,528;87,54821
 543,48; 4825,749;  315,011; 5470,077;87,50106
 544,06; 4623,051;  175,685; 5214,820;88,25655
 544,65; 5022,043;  431,135; 5594,803;88,90790
 545,23; 4756,366;   28,542; 5331,432;89,15562
 545,81; 5544,522;  592,644; 6081,003;90,22511
 546,39; 5064,414;   53,533; 5563,751;90,93798
 546,98; 5407,096;  208,802; 5849,397;92,15861
 547,56; 5462,388;  194,766; 5993,677;90,83812
 548,14; 5692,522;  332,744; 6316,003;89,57958
 548,72; 5793,565;  338,559; 6315,048;91,27442
 549,31; 5705,265;  130,259; 6114,048;93,16849
 549,89; 5758,952;  183,209; 6411,289;89,52587
 550,47; 5779,211;  186,672; 6618,306;86,95363
 551,05; 5784,251;  117,447; 6471,054;89,19035
 551,63; 6206,651;  405,847; 7060,054;87,17499
 552,22; 6153,555;  207,545; 6906,266;88,76336
 552,80; 6126,317;  160,506; 6857,494;89,08200
 553,38; 6267,340;  194,737; 6941,591;90,00644
 553,96; 6361,271;  187,355; 7007,471;90,52508
 554,54; 6687,643;  317,211; 7292,334;91,33075
 555,13; 6679,575;  171,774; 7328,832;90,92845
 555,71; 6594,748;   -0,409; 7221,929;91,31609
 556,29; 7091,203;  364,598; 7921,820;89,00896
 556,87; 7018,734;  140,079; 7737,934;90,53417
 557,45; 7052,586;  100,783; 7782,294;90,50047
 558,03; 7099,153;   68,429; 7873,437;90,07965
 558,62; 7396,737;  204,577; 8119,146;90,87242
 559,20; 7359,862;  109,724; 7858,071;93,57012
 559,78; 7627,596;  301,602; 8361,397;90,89553
 560,36; 7543,138;  146,135; 8000,060;94,18224
 560,94; 7591,866;  170,579; 8206,197;92,35490
 561,52; 7875,870;  349,498; 8708,558;90,03850
 562,11; 7760,935;  127,199; 8583,083;90,27721
 562,69; 7968,714;  209,070; 8587,518;92,61434
 563,27; 7863,102;   22,178; 8555,672;91,88409
 563,85; 8104,644;  234,093; 8809,717;91,77818
 564,43; 7861,591;  -16,036; 8981,889;87,54938
 565,01; 8185,389;  123,786; 9061,826;90,19430
 565,59; 8050,728;   69,245; 9219,746;87,22454
 566,18; 8163,580;   96,292; 9514,191;85,65910
 566,76; 8404,820;   98,804; 9588,705;87,52479
 567,34; 8669,099;  190,580; 9941,460;86,95132
 567,92; 8742,524;  215,247; 9802,534;88,94359
 568,50; 8592,815;  203,890; 9758,666;87,79824
 569,08; 8820,715;  304,190;10092,666;87,00563
 569,66; 8822,598;  147,022;10132,546;86,88153
 570,24; 8859,168;  139,895;10332,025;85,54907
 570,82; 9160,076;  340,694;10330,980;88,27957
 571,40; 8997,000;   92,358;10403,522;86,35923
 571,99; 9018,646;   91,851;10287,632;87,55381
 572,57; 9167,060;  141,346;10310,009;88,76008
 573,15; 9770,917;  346,068;10899,729;89,30408
 573,73; 9437,754;   15,187;10499,352;89,87427
 574,31; 9550,353;   95,905;11004,969;86,66599
 574,89; 9769,136;  149,519;11231,231;86,80623
 575,47; 9579,441;   -6,605;10925,506;87,68706
 576,05; 9874,995;  187,920;11315,014;87,05845
 576,63; 9925,652;  148,829;11593,438;85,42733
 577,21; 9881,111;   62,730;11457,220;86,16780
 577,79;10225,789;  141,886;11475,826;88,97085
 578,37;10157,008;  -14,626;11325,095;89,69916
 578,95;10387,217;   72,768;11554,729;89,83177
 579,53;10467,951;   70,609;11722,289;89,23470
 580,11;10431,199;  -30,500;11642,608;89,62222
 580,69;10803,051;  235,789;12012,140;89,73291
 581,27;11204,095;  486,524;12673,334;87,94402
 581,85;10930,085;  133,668;12270,466;88,95606
 582,43;11203,995;  256,482;12719,249;87,84175
 583,01;11101,729;  149,961;12450,574;89,03433
 583,59;11113,448;   63,349;12618,843;88,01007
 584,17;11349,178;  177,451;12709,895;89,14245
 584,75;11444,462;  127,424;13157,071;86,85606
 585,33;11337,889;  210,086;13246,826;85,35725
 585,91;11515,252;  216,809;13206,289;86,98149
 586,49;11473,464;  112,739;13048,900;87,82145
 587,07;11470,792;  133,322;13130,803;87,22821
 587,65;11675,593;  198,042;13589,951;85,70511
 588,23;11738,185;  168,930;13929,700;84,07418
 588,81;11799,222;  204,087;13965,089;84,26083
 589,39;11823,774;  105,816;13862,917;85,17753
 589,97;12058,014;  358,670;14148,518;84,84027
 590,55;11679,060;   93,983;13669,774;85,33629
 591,13;11558,035;  136,794;13993,763;82,42236
 591,71;11726,948;  200,911;14197,077;82,35139
 592,29;11691,206;  112,596;13972,031;83,54316
 592,87;11686,285;  240,968;14238,466;81,76688
 593,45;11523,999;   64,500;14245,608;80,80820
 594,03;11929,121;  341,787;14914,089;79,51616
 594,61;11568,526;   35,600;14391,128;80,33788
 595,19;11811,099;  106,780;14196,460;83,07015
 595,77;11719,172;   59,775;14305,620;81,84419
 596,35;11673,319;  116,009;14522,025;80,22558
 596,93;11657,081;   -0,793;14268,020;81,70178
 597,51;11886,627;  109,820;14675,277;80,85436
 598,09;11839,867;  132,937;14556,111;81,16750
 598,66;12088,992;  261,984;15151,037;79,43425
 599,24;11798,941;   46,695;14946,506;78,87514
 599,82;12217,938;  266,397;15451,294;78,70676
 600,40;12033,464;   94,139;15304,900;78,49262
 600,98;12458,782;  314,527;15569,168;79,61023
 601,56;12226,727;   65,962;15159,363;80,57007
 602,14;12449,256;  130,827;15106,648;82,25545
 602,72;12632,394;  140,704;15285,186;82,48344
 603,30;12557,836;  148,957;15174,997;82,58250
 603,87;12661,194;  164,687;15561,568;81,16259
 604,45;12710,994;  173,262;15691,100;80,79561
 605,03;12500,493;   21,904;15241,186;81,99197
 605,61;12697,707;  189,754;15606,945;81,12991
 606,19;12576,257;   26,085;15629,563;80,43189
 606,77;12773,632;  251,701;15800,871;80,53118
 607,35;12346,405;  -15,404;15513,031;79,60757
 607,93;12291,854;   29,807;15862,500;77,44764
 608,50;12479,940;  234,275;16284,357;76,29659
 609,08;12163,619;  104,609;15967,025;76,02253
 609,66;12340,316;  344,211;16227,814;75,52509
 610,24;12200,117;  283,706;16148,494;75,11232
 610,82;11690,986;   40,246;15783,528;74,00452
 611,40;11940,451;  300,347;16117,055;73,59372
 611,97;11325,303;   18,498;15772,820;71,76954
 612,55;11110,158;  -33,695;15885,712;70,00169
 613,13;11201,953;  222,929;16150,438;68,93121
 613,71;11170,806;  272,196;16563,031;66,90025
 614,29;10822,763;  168,681;16504,986;65,21720
 614,87;10721,639;  102,717;16499,443;64,76245
 615,44;10740,683;  223,190;16671,402;63,94307
 616,02;10603,694;   30,662;16365,100;64,72848
 616,60;10480,419;   32,309;16355,025;64,00963
 617,18;10691,275;  219,536;16718,066;63,47074
 617,76;10541,827;  236,783;16766,512;62,34249
 618,33;10208,687;   50,508;16532,764;61,63100
 618,91;10235,302;  202,340;16699,906;60,81480
 619,49;10101,332;  371,101;17053,871;58,32503
 620,07; 9766,180;  227,092;16934,191;57,09601
 620,64; 9905,127;  168,625;17012,598;57,80407
 621,22; 9674,541;   -2,705;16906,506;57,23062
 621,80; 9636,354;   38,107;16886,500;56,96833
 622,38; 9890,402;  397,898;17009,820;57,14272
 622,95; 9866,897;  192,022;17175,545;56,96625
 623,53; 9625,000;    2,558;17111,523;56,24210
 624,11; 9646,414;  104,470;17423,518;55,09508
 624,69; 9567,387;   36,608;17192,764;55,55311
 625,26; 9584,782;   46,227;17559,168;54,46575
 625,84; 9517,715;   40,990;17414,666;54,54646
 626,42; 9445,196;  128,740;17431,162;53,84481
 627,00; 9296,419;  162,384;17470,557;52,77296
 627,57; 9279,706;  215,192;17828,711;51,46339
 628,15; 9111,064;  -10,699;17314,135;52,65138
 628,73; 9570,931;  285,481;17438,723;54,13233
 629,31; 9515,356;  124,423;17090,328;55,35180
 629,88; 9550,513;  155,412;17335,604;54,68566
 630,46; 9196,137;  -33,623;17278,146;53,31494
 631,04; 9419,077;   94,651;17624,895;53,19051
 631,61; 9528,555;  116,107;17673,500;53,60960
 632,19; 9408,033;  -24,379;17531,020;53,72941
 632,77; 9442,586;  101,025;17924,379;52,41191
 633,34; 9472,772;   -2,425;17809,619;53,19545
 633,92; 9741,130;  160,661;18271,574;52,89887
 634,50; 9439,685;   23,205;18098,230;52,09663
 635,08; 9648,053;  313,705;18323,969;51,82794
 635,65; 9419,335;  167,599;18408,082;50,72089
 636,23; 9337,466;   88,579;18257,197;50,90583
 636,81; 9633,733;  264,679;18562,934;51,20190
 637,38; 9423,831;  -24,719;18197,723;51,85118
 637,96; 9428,121;  -30,076;18263,854;51,70129
 638,54; 9691,432;  245,538;18562,637;51,56872
 639,11; 9659,271;   39,718;18623,705;51,76259
 639,69; 9883,963;  324,144;19141,221;50,80395
 640,26; 9699,784;   50,764;18713,994;51,70070
 640,84;10024,904;  159,565;18590,242;53,52673
 641,42; 9893,623;   62,265;18551,490;53,17344
 641,99; 9758,643;   25,066;18605,738;52,38549
 642,57; 9800,062;  102,367;18751,986;51,99942
 643,15;10043,781;  284,167;18910,234;52,39761
 643,72; 9738,700;  -34,932;18914,484;51,57748
 644,30; 9760,120;    6,968;19057,732;51,19559
 644,87; 9919,539;  175,469;19486,980;50,45731
 645,45; 9797,459;  -43,330;19192,229;51,15936
 646,03;10180,678;  210,770;19371,477;52,03309
 646,60;10176,997;  306,171;19543,725;51,31019
 647,18; 9975,417;   35,071;19408,973;51,30792
 647,75;10131,936;   61,472;19928,221;50,69004
 648,33;10082,255;   -8,427;20006,469;50,41586
 648,91; 9875,074;  -76,427;19520,717;50,78036
 649,48;10106,194;  -12,226;19776,965;51,13105
 650,06;10450,014;   41,974;19777,213;52,73835
 650,63;10502,833;    1,075;19507,461;53,83754
 651,21;10856,352;  135,976;20248,711;53,30143
 651,79;11065,671;  229,676;20341,959;53,87750
 652,36;11053,190;  146,777;20478,207;53,64312
 652,94;10812,710;   57,078;21084,455;51,15061
 653,51;10679,329;   16,378;21001,703;50,81146
 654,09;10938,648;  131,079;21131,951;51,46248
 654,66;10941,968;   83,579;20753,199;52,53308
 655,24;11032,487;   59,280;20691,447;53,18495
 655,81;11362,307;  195,781;21340,695;52,80951
 656,39;11444,226;   44,481;21402,943;53,37343
 656,96;11480,845;    9,282;21346,191;53,76394
 657,54;11816,564;  269,782;21567,439;54,21621
 658,11;11722,784;  122,083;21334,688;54,68777
 658,69;11706,003;  126,284;21492,938;54,19529
 659,27;11715,522;  140,584;21736,186;53,59859
 659,84;11901,842;  225,285;21812,434;54,09032
 660,42;11743,961;  -22,814;21484,682;54,71011
 660,99;11796,980;  -69,714;21570,930;54,83522
 661,57;12033,000;  132,987;21364,178;56,04967
 662,14;12170,619;  203,387;21877,426;55,21459
 662,72;12065,139;  -67,112;21895,674;55,24004
 663,29;12257,758;  -11,411;22203,922;55,22838
 663,87;12338,177;  -72,511;22203,170;55,71407
 664,44;12656,297;  218,390;22710,418;55,29918
 665,01;12624,416;   83,990;22712,666;55,41829
 665,59;12802,035;   25,991;22601,914;56,59146
 666,16;13032,954;  -28,208;22176,162;58,82248
 666,74;13308,174;  -20,808;22542,412;59,07393
 667,31;13570,193;  -39,407;23111,660;58,78606
 667,89;13861,912;   43,193;23824,908;58,10649
 668,46;14076,231;  239,794;23992,156;58,25289
 669,04;14104,852;  185,595;24339,404;57,62758
 669,61;14214,570;   17,095;24094,652;58,96560
 670,19;14447,290;  -28,304;24326,900;59,43532
 670,76;14677,009;  -56,303;24304,148;60,48046
 671,33;14997,028;  -37,303;24423,396;61,46321
 671,91;15681,048;  264,698;24973,645;62,39177
 672,48;15429,567;   10,698;25444,893;60,62260
 673,06;15519,887;  141,599;25687,141;60,19950
 673,63;15363,206;    6,000;25072,389;61,26613
 674,21;15408,726; -106,200;25269,639;61,14054
 674,78;15826,244;   87,301;25718,887;61,40448
 675,35;15956,563;   71,101;25395,135;62,72880
 675,93;16441,584;  255,502;25968,383;62,94931
 676,50;16385,002;    8,203;25704,631;63,73181
 677,08;16472,021;  -30,797;26029,879;63,32460
 677,65;16402,742;  -49,296;25772,127;63,71468
 678,22;16872,160;   24,205;26322,375;64,06512
 678,80;17182,580;  -75,695;26265,623;65,51789
 679,37;17704,699;  -37,494;27253,871;65,01028
 679,94;17841,119;  -30,294;27220,119;65,58217
 680,52;18491,139;  113,707;28065,367;65,74719
 681,09;19066,457;  111,508;27892,615;68,22964
 681,67;19679,676;  191,308;28668,863;68,43413
 682,24;19826,496;  102,209;28825,113;68,67094
 682,81;19937,115;  -39,391;28976,361;68,84711
 683,39;20397,834;  -58,790;28946,609;70,52695
 683,96;20806,953;    5,911;28830,857;72,16333
 684,53;21341,072;  123,111;29409,105;72,45088
 685,11;21991,293;   91,512;29579,354;74,26716
 685,68;22435,412;   38,212;29606,602;75,74711
 686,25;22669,131;  -26,387;29685,850;76,38441
 686,83;22922,750;   42,414;29648,098;77,28359
 687,40;23324,770;   67,214;30069,346;77,51968
 687,97;23786,988;   58,215;30402,594;78,19825
 688,55;24158,508;  -52,184;30422,842;79,44437
 689,12;24539,229;   20,416;30470,090;80,52241
 689,69;24851,547;  196,017;30947,340;80,17714
 690,27;25212,467;  -33,483;31210,588;80,80237
 690,84;25865,887;  -87,282;31292,836;82,70577
 691,41;26619,904;  138,219;31725,084;83,83765
 691,98;26701,525;  182,919;31755,332;83,99297
 692,56;26822,943;   79,020;31543,580;84,99697
 693,13;27252,764;  -94,080;31279,828;87,16429
 693,70;27959,783;   89,921;31193,076;89,60461
 694,28;28394,002;   20,122;31195,324;91,01426
 694,85;28446,820;  -42,178;31334,572;90,79652
 695,42;28586,340;   -8,977;32192,820;88,80038
 695,99;28673,459;  100,424;32395,068;88,47608
 696,57;28554,580;  -11,376;32583,316;87,63990
 697,14;28832,498;   28,825;32816,566;87,84891
 697,71;28876,018;    0,025;32560,814;88,68333
 698,28;29115,637;   81,026;32604,063;89,27398
 698,86;29390,457;  348,627;33389,309;87,89719
 699,43;29440,477;   79,827;33773,559;87,13980
 700,00;29477,596;   -9,872;34107,805;86,42871
 700,57;29206,914;  -87,672;33970,055;86,01451
 701,15;29642,834;  101,329;33912,305;87,37253
 701,72;29428,953;  -77,870;33906,551;86,82456
 702,29;29714,072;  123,530;34850,801;85,20837
 702,86;29797,092; -112,369;34806,047;85,65526
 703,43;30430,811;  152,831;34973,297;86,95455
 704,01;30433,131;  -45,068;34788,543;87,49652
 704,58;30374,250; -127,867;34907,793;87,06020
 705,15;30678,270;   91,233;35582,039;86,18299
 705,72;30190,088; -111,966;35482,289;85,13187
 706,29;30163,908;   -0,065;35495,535;84,97947
 706,87;30304,527;   20,235;36105,785;83,92360
 707,44;30637,947;   29,836;36555,031;83,79999
 708,01;30771,666;   16,236;36552,281;84,17832
 708,58;30865,785; -110,963;36876,531;83,74925
 709,15;31221,105; -103,062;36797,777;84,88741
 709,72;31319,123;  196,138;36951,027;84,67713
 710,30;31321,744;  104,739;36949,273;84,72628
 710,87;30697,463; -131,061;36374,523;84,44879
 711,44;30776,781;  -57,060;35958,770;85,61191
 712,01;30926,502;  -71,659;35827,020;86,34903
 712,58;31341,621; -104,759;36176,266;86,67445
 713,15;31963,939;   34,442;36555,516;87,42760
 713,73;32226,459;   25,243;36661,762;87,89377
 714,30;32584,879;   84,743;37510,012;86,84009
 714,87;33203,297;   80,144;38364,258;86,51931
 715,44;33299,016;  -36,156;38297,508;86,96057
 716,01;33221,836;   85,645;38654,758;85,91380
 716,58;33156,258;   43,746;38514,004;86,07302
 717,15;33949,375;  339,246;39388,254;86,07166
 717,72;33816,496;  -15,853;39369,500;85,90084
 718,30;33973,813;  -85,753;39748,750;85,50267
 718,87;33386,332;   24,148;38780,996;86,08075
 719,44;33926,754;    9,149;38881,246;87,25437
 720,01;34282,973;   33,149;39106,492;87,65522
 720,58;35355,090;  165,450;39486,742;89,49258
 721,15;35374,211;  -90,049;39428,988;89,73969
 721,72;35212,730;   13,251;39105,238;90,04270
 722,29;35135,250;   64,452;39273,484;89,44571
 722,86;35272,770;   35,852;39195,734;89,98218
 723,43;35734,988;  126,153;39863,980;89,60942
 724,00;35784,508;   82,954;39741,230;90,02296
 724,57;35691,828;  101,754;39735,480;89,79745
 725,14;35575,047;   28,655;39825,727;89,31911
 725,72;35788,465;   36,055;40456,977;88,45026
 726,29;36164,883;   48,056;40207,223;89,93420
 726,86;36316,805;  218,857;40264,473;90,14207
 727,43;36512,523;  133,857;40433,719;90,26995
 728,00;36997,141;   21,358;40716,969;90,85939
 728,57;37532,762;  141,458;41142,215;91,19662
 729,14;37892,980;  -60,041;41339,465;91,67506
 729,71;37878,602;   64,360;41500,711;91,25862
 730,28;37635,320;  126,260;41940,961;89,70305
 730,85;37286,039;  125,261;41889,207;88,97813
 731,42;36742,059;  -47,138;41599,457;88,33663
 731,99;36695,379;  -49,238;41746,707;87,91431
 732,56;37086,695;  231,863;41822,953;88,61233
 733,13;37445,316;   27,063;41415,203;90,40815
 733,70;38380,035;   71,964;41521,449;92,42110
 734,27;39121,156;   -8,135;42106,699;92,91095
 734,84;38855,375; -142,835;41894,945;92,76943
 735,41;39326,594;  159,866;42035,195;93,53175
 735,98;39394,113;    1,866;41995,441;93,80541
 736,55;39098,531; -118,533;41968,691;93,18045
 737,12;39066,352;  -75,332;42484,938;91,96766
 737,69;38578,570;   18,468;42603,188;90,54915
 738,26;38328,090;  -44,731;42671,434;89,83208
 738,83;38397,211;    2,070;43059,684;89,17155
 739,40;38772,930;   27,370;43844,934;88,42472
 739,97;38884,449;    4,371;43907,180;88,55943
 740,53;39211,066;   91,871;44084,430;88,92230
 741,10;39207,387;  112,572;43538,676;90,02607
 741,67;38994,508;   12,473;43528,926;89,57999
 742,24;38942,926;   30,773;43577,172;89,35791
 742,81;38665,047; -114,226;43458,422;88,99912
 743,38;39229,164;  254,074;43447,668;90,23350
 743,95;39386,785;   67,275;43514,918;90,49860
 744,52;40103,203;  150,276;44166,164;90,76933
 745,09;40419,023;  -61,424;43910,414;92,05994
 745,66;40621,441;  158,177;43856,660;92,59650
 746,23;40028,461;   82,577;43423,910;92,16579
 746,80;39530,680;  213,378;43491,160;90,84870
 747,36;39363,898;  126,479;43455,406;90,55710
 747,93;39535,020;  -24,121;43125,656;91,67867
 748,50;40077,840;  -77,220;43278,902;92,61682
 749,07;40397,059;   42,681;43620,152;92,60376
 749,64;40169,477;  -49,019;43844,398;91,62762
 750,21;40358,797;  188,582;44194,648;91,28336
 750,78;40255,516;  -51,818;44069,895;91,35487
 751,35;40589,434;  116,783;44050,145;92,12282
 751,92;40337,156;  -31,516;43703,391;92,30309
 752,48;39872,375; -129,716;43701,641;91,26364
 753,05;39532,691;  -20,015;44076,887;89,69498
 753,62;39486,914;  163,185;44902,137;87,89596
 754,19;39106,934;  176,486;45078,387;86,70111
 754,76;38918,750;  166,687;44929,633;86,57174
 755,33;38631,172; -134,613;43806,883;88,22136
 755,89;39455,391;  187,988;45260,129;87,12123
 756,46;39437,211;    5,889;44245,379;89,13150
 757,03;39981,930;   50,089;44433,625;89,96994
 757,60;40153,047;  -62,110;43520,875;92,27261
 758,17;40397,867;   64,290;43744,121;92,33913
 758,74;40372,887;  136,091;44678,371;90,33394
 759,30;39846,906; -100,608;44983,617;88,60641
 759,87;39367,523;   41,692;44565,867;88,32467
 760,44;39043,043;  204,093;44581,113;87,52041
 761,01;38672,465;   22,393;43405,363;89,09042
 761,58;39034,684;  100,594;43152,609;90,43500
 762,14;39281,801;   24,695;43238,859;90,84314
 762,71;39462,523;  -10,005;43592,109;90,52893
 763,28;39531,441;   99,296;43784,355;90,26460
 763,85;39095,762;  -85,804;44600,605;87,68117
 764,41;39386,980;   31,497;44305,852;88,89002
 764,98;39616,301;   55,498;44681,102;88,65046
 765,55;39453,719; -108,602;43848,348;90,00243
 766,12;39286,637;   85,499;43924,598;89,42049
 766,69;39065,258;   24,600;43898,844;88,98309
 767,25;39137,777;  203,500;44055,094;88,78646
 767,82;39124,598;   52,801;43675,340;89,56791
 768,39;39607,617;  -27,299;43486,590;91,08567
 768,95;39587,035;  -41,198;43094,836;91,86805
 769,52;39213,555;   -0,697;43358,086;90,44131
 770,09;39071,875;  242,903;44048,336;88,63963
 770,66;39361,293;  417,204;45178,582;87,00378
 771,22;39378,211;  188,804;45112,832;87,23485
 771,79;39457,730;  226,705;45411,078;86,82432
 772,36;38909,152;  133,206;44956,328;86,50880
 772,93;38752,871;  -20,394;44671,574;86,75667
 773,49;38933,688;  127,407;44318,824;87,81407
 774,06;38959,910;   -1,892;44192,070;88,16092
 774,63;38645,727;    6,008;42993,320;89,88633
 775,19;38384,246;   -9,391;42576,566;90,15563
 775,76;38119,566;  -28,891;42033,816;90,69425
 776,33;37716,785;  -89,690;42088,063;89,63606
 776,89;37868,105;   80,911;42382,313;89,32847
 777,46;37595,926;   19,811;42423,563;88,61507
 778,03;37313,043;   56,012;42300,809;88,19318
 778,59;37017,363; -145,188;41294,059;89,67960
 779,16;37256,883;  -41,087;41515,305;89,75267
 779,73;37081,000;   41,114;41970,555;88,33861
 780,29;36702,922;   35,914;42158,801;87,04771
 780,86;36270,539;  -15,485;42096,051;86,16647
 781,43;36179,660;  154,316;41628,297;86,86252
 781,99;35960,180;  -61,084;40743,547;88,27739
 782,56;36628,297;   45,217;41348,793;88,57122
 783,13;37273,117;   42,017;41323,043;90,18938
 783,69;37729,938;  -56,482;40720,289;92,66653
 784,26;37609,355;  -73,381;40440,539;93,01183
 784,82;37615,574;   15,019;40371,789;93,17038
 785,39;37503,996; -142,780;40693,035;92,19058
 785,96;37697,914;  -29,880;41526,285;90,78748
 786,52;37988,734;   20,521;41396,531;91,76383
 787,09;37802,453;   18,422;40772,781;92,71163
 787,65;37042,574;  -87,978;40247,027;92,05540
 788,22;36409,691;   39,823;40593,277;89,68377
 788,79;35970,313;   73,923;40966,523;87,78211
 789,35;35321,332;  -43,276;40717,773;86,76079
 789,92;34887,648;  -55,875;40156,020;86,89848
 790,48;34735,168;  -17,075;39761,270;87,36473
 791,05;34919,590;   33,326;39726,516;87,88980
 791,62;35042,309;  140,727;40084,766;87,37620
 792,18;35303,926;   25,527;39869,016;88,54244
 792,75;35524,746;  -74,472;39630,262;89,65988
 793,31;35779,867;  -56,572;39538,512;90,50729
 793,88;35987,086;  175,829;39251,758;91,64531
 794,44;35248,305;  -11,170;38703,008;91,07639
 795,01;34989,625;   59,330;39271,254;89,08080
 795,57;34829,145;  -22,669;39049,504;89,19855
 796,14;35157,863;   93,431;38915,750;90,32029
 796,70;34928,980; -109,568;37537,000;93,07236
 797,27;34894,801;  113,633;37308,246;93,51130
 797,83;34409,621;  -12,467;37204,496;92,49032
 798,40;34392,539;   18,934;37269,742;92,27613
 798,97;34259,961;  -12,465;37644,992;91,01099
 799,53;34179,879;  -74,365;37784,242;90,47941
 800,10;34032,898; -102,664;37977,488;89,64135
 800,66;34111,617;   36,736;38301,738;89,04973
 801,23;34200,938;   28,737;38292,984;89,30582
 801,79;34943,258;  478,538;38872,234;89,76661
 802,35;34748,477;   58,338;38528,480;90,17419
 802,92;34641,793;    5,039;38104,730;90,91085
 803,48;34142,215;   21,639;37782,977;90,35849
 804,05;33540,434;   88,440;37011,227;90,59986
 804,61;33430,152;  175,441;37202,473;89,81198
 805,18;33194,570;   19,641;37680,723;88,08809
 805,74;33473,590;  153,142;38514,969;86,85835
 806,31;32922,609;   14,142;38114,219;86,37376
 806,87;33149,430;  410,543;38528,469;85,88843
 807,44;32483,449; -110,056;37300,715;87,12332
 808,00;33214,770;  156,944;37527,965;88,45845
 808,57;33438,887;   85,445;37401,211;89,38164
 809,13;34209,906;  675,746;37962,461;89,93595
 809,69;33396,625;   90,746;36095,707;92,50358
 810,26;33509,746;  340,147;36381,957;92,03089
 810,82;32770,164; -128,453;35382,203;92,64435
 811,39;32902,586;  119,548;35738,453;92,03831
 811,95;33062,105;  313,349;36261,699;91,09947
 812,51;32507,223;  -37,151;35967,949;90,38823
 813,08;32143,342;   -4,550;35995,195;89,30033
 813,64;31863,563;    4,750;36063,445;88,35265
 814,21;32210,480;  349,251;36801,691;87,40493
 814,77;32749,000;  642,252;36709,941;89,01803
 815,33;32522,020;   50,752;35745,191;90,97010
 815,90;32045,939;    2,553;35142,438;91,18808
 816,46;31358,959;   50,954;34270,688;91,49108
 817,03;30860,178;   28,854;33805,934;91,27883
 817,59;30798,396;  237,255;34402,184;89,45179
 818,15;30800,217;  232,355;35384,430;86,95891
 818,72;30879,936;  125,356;35778,680;86,26006
 819,28;30432,355;   26,957;35082,926;86,73387
 819,84;30166,375;  264,857;35353,176;85,21787
 820,41;28973,693;  -49,342;34031,422;85,15958
 820,97;28397,213;  123,558;33982,672;83,50382
 821,53;28226,033;  -12,741;32607,920;86,56714
 822,10;28851,852;  181,060;32652,168;88,29631
 822,66;29336,871;   82,960;32299,416;90,80425
 823,22;28980,891;  -41,539;31892,664;90,88196
 823,79;29537,211;  510,661;32593,912;90,47260
 824,35;28798,029;   -0,338;31783,160;90,60792
 824,91;28538,748;  -44,237;31745,408;89,91288
 825,48;28816,068;  142,363;32032,656;89,91358
 826,04;28778,188;  151,864;31879,906;90,22405
 826,60;28373,207;   53,865;32376,154;87,61552
 827,17;28097,625;  103,465;32139,402;87,38361
 827,73;27695,846; -106,134;32054,650;86,44683
 828,29;28051,264;  -49,034;32029,898;87,59736
 828,85;28639,385;   45,367;32254,146;88,77709
 829,42;29252,803;  316,168;32194,395;90,77241
 829,98;28826,723;  175,768;31629,643;91,08879
 830,54;28416,541;  164,869;31667,891;89,67925
 831,11;27733,461;  -27,831;31519,139;87,99987
 831,67;27897,080;  -51,030;31767,387;87,83627
 832,23;28225,699;  -63,229;32379,635;87,19615
 832,79;28283,119;  -30,229;32143,883;88,00040
 833,36;28189,238;  149,672;31701,133;88,86931
 833,92;27566,457;  -30,527;31062,381;88,75652
 834,48;27409,377;   27,873;30924,629;88,62259
 835,04;27564,297;  -47,326;30932,877;89,12667
 835,60;28137,717;  115,274;31065,125;90,54145
 836,17;28386,234;   61,675;30796,373;92,15825
 836,73;27963,654;  -83,224;30412,621;91,96951
 837,29;27210,373;  -57,824;30093,869;90,43670
 837,85;26931,594;  137,377;30016,117;89,67653
 838,42;26566,512; -125,123;29550,365;89,94506
 838,98;26757,232; -127,022;29752,613;89,97518
 839,54;26860,551;  -95,621;30132,861;89,17474
 840,10;26976,471;  105,879;30857,109;87,38054
 840,66;26460,289;   62,380;30442,359;86,89245
 841,23;26230,410;   51,980;30473,607;86,05204
 841,79;26312,229;   85,981;30524,855;86,16037
 842,35;26802,148;  208,082;30403,104;88,07434
 842,91;26787,268;   -3,618;30033,352;89,19304
 843,47;27257,586;    7,483;30368,600;89,75330
 844,03;27090,105;  -87,716;29967,848;90,42526
 844,60;26611,125;  -86,816;30058,096;88,56533
 845,16;26181,244; -146,515;29729,344;88,12386
 845,72;26042,764;  -48,015;30142,592;86,42019
 846,28;25856,383;  -60,614;29939,840;86,38868
 846,84;25816,303;  -45,813;29914,088;86,32243
 847,40;25935,922;   73,087;29803,336;86,99165
 847,96;25595,541;  -18,712;28748,584;89,03949
 848,53;25504,760;  -46,712;28829,834;88,48521
 849,09;25428,680;  -67,411;28578,082;89,00559
 849,65;25654,398;   82,990;29115,330;88,07905
 850,21;25629,520;   -8,810;29040,578;88,25773
 850,77;25782,438;    5,591;29002,826;88,89415
 851,33;26028,057;   77,292;29050,074;89,56946
 851,89;26496,977;  413,092;29332,322;90,19564
 852,45;26234,596;  -71,107;28618,570;91,69048
 853,01;26257,516;   27,893;28689,818;91,51382
 853,57;26169,936;   16,494;29209,066;89,58937
 854,14;25688,055; -148,005;29172,314;88,11657
 854,70;25663,973;  -49,605;29325,563;87,53508
 855,26;25411,393;    1,096;29008,811;87,59841
 855,82;25000,111;  -60,004;28571,061;87,52771
 856,38;24928,332;   29,297;28634,309;87,04431
 856,94;24961,051;   79,898;28334,557;88,06036
 857,50;24931,471;   19,098;28582,805;87,21688
 858,06;24807,689; -120,201;28321,053;87,64695
 858,62;24507,508;  -32,500;28314,301;86,57064
 859,18;24598,729;   78,600;28611,549;85,93619
 859,74;24536,047;   15,001;28555,797;85,91577
 860,30;24665,066;   18,401;28404,045;86,82792
 860,86;24686,986;  -58,198;27871,293;88,59877
 861,42;24883,506; -123,797;27994,541;88,93592
 861,98;25069,225;   51,403;28250,789;88,71761
 862,54;24539,145; -115,196;27867,037;88,10712
 863,10;24651,963;   83,504;28241,285;87,25282
 863,66;24474,883;  -62,195;28351,535;86,35641
 864,22;24845,502;   84,206;28430,783;87,35198
 864,78;24981,822;  -16,594;28347,031;88,13548
 865,34;25052,941;  -50,093;27741,279;90,32672
 865,90;25060,260;   15,107;27362,527;91,58141
 866,46;24869,979;   29,208;27343,775;90,94331
 867,02;25058,799;  420,809;27576,023;90,73023
 867,58;24442,219;  -59,691;26938,271;90,75466
 868,14;24925,838;  263,910;27313,520;91,17295
 868,70;24959,357;  126,811;27435,768;90,93188
 869,26;24889,076;   97,711;27823,016;89,41783
 869,82;24547,996;  -85,788;27733,264;88,55005
 870,38;24214,016; -129,988;27582,512;87,84485
 870,94;24415,734;  222,913;27939,762;87,28561
 871,50;24217,154; -107,586;27201,010;89,07357
 872,06;24241,072; -106,086;27559,258;88,00598
 872,62;24044,293;  -94,985;27480,506;87,53889
 873,18;24037,012;  -83,685;27688,754;86,85120
 873,74;23980,230;  171,716;27624,002;86,72689
 874,29;23659,350;   92,117;27800,250;85,05529
 874,85;23169,150;  -81,683;27359,250;84,73048
 875,41;23149,850;  -29,783;27084,250;85,48943
 875,97;23165,850;   16,517;27130,250;85,37863
 876,53;23519,750;   89,717;27101,250;86,74085
 877,09;23657,250;   53,017;27051,250;87,42881
 877,65;24017,250;  234,417;27319,250;87,80868
 878,21;23580,750;  -11,183;26783,250;88,04789
 878,77;23485,949;   31,517;26110,250;89,93701
 879,33;23440,250;   48,417;26320,250;89,03769
 879,88;23392,350;  -43,483;25989,250;90,02448
 880,44;23209,051;   -3,783;25801,250;89,95468
 881,00;23070,150;  -56,083;25747,250;89,62499
 881,56;22948,449;   -3,483;25926,250;88,51588
 882,12;22974,750;  241,817;25597,250;89,65705
 882,68;22499,051;   17,717;25400,250;88,57010
 883,24;22494,449;  105,517;25354,250;88,67349
 883,79;22865,150;  259,717;25523,250;89,47851
 884,35;23001,650;  161,617;25906,250;88,71765
 884,91;23056,350; -128,583;25974,250;88,82152
 885,47;23420,051;  103,817;26485,250;88,38123
 886,03;23291,551;  108,717;26058,250;89,33815
 886,59;22886,051;  -55,783;25711,250;89,03561
 887,14;22855,949;  155,917;25716,250;88,80961
 887,70;22722,051; -155,183;24942,250;91,15368
 888,26;23348,350;  185,517;25692,250;90,81066
 888,82;23641,850;   42,517;25492,250;92,72920
 889,38;23910,051;  164,117;25869,250;92,37818
 889,93;23721,650;   44,217;26107,250;90,84681
 890,49;23624,051; -131,583;26188,250;90,25754
 891,05;23707,750;  -72,183;26363,250;89,95477
 891,61;24080,250;   40,117;26369,250;91,30621
 892,17;24522,449;   81,817;27236,250;90,00605
 892,72;24410,949;  -98,983;27393,250;89,15221
 893,28;24697,551;   26,617;27845,250;88,68493
 893,84;24687,750;  -99,883;27941,250;88,39740
 894,40;25008,949;   98,717;28310,250;88,29805
 894,95;25282,750; -118,283;28445,250;88,92819
 895,51;25586,449;   -0,083;28690,250;89,18172
 896,07;25859,650;  -43,783;28784,250;89,85502
 896,63;25697,250;  -80,583;28432,250;90,40783
 897,18;25862,350;   56,017;28682,250;90,14924
 897,74;26033,551;   -6,583;28540,250;91,21899
 898,30;25771,150; -105,383;28202,250;91,41186
 898,85;25906,551;   48,317;28647,250;90,41678
 899,41;25956,750;  140,817;29007,250;89,43236
 899,97;25495,150; -108,783;29050,250;87,80790
 900,53;25206,750;   55,617;28893,250;87,21636
 901,08;24788,150;  -97,883;28754,250;86,25370
 901,64;24778,051;   97,617;28341,250;87,38406
 902,20;24410,949;  -14,583;27849,250;87,66035
 902,75;24354,449;   17,617;27154,250;89,68258
 903,31;24368,150;  -20,383;27096,250;89,93939
 903,87;24310,051;  -46,583;27068,250;89,82771
 904,42;24451,051;  107,717;27978,250;87,34434
 904,98;24440,650;   45,917;28116,250;86,90575
 905,54;24243,150;   34,817;27966,250;86,67057
 906,09;24177,551;   -1,783;27751,250;87,12321
 906,65;23898,250; -110,183;27377,250;87,34331
 907,21;24167,850;   64,017;27398,250;88,18185
 907,76;24272,949;  -44,683;26965,250;90,03218
 908,32;24643,949;  -19,383;27120,250;90,87570
 908,88;24622,750;  -39,183;26943,250;91,39996
 909,43;24901,949;  164,017;27198,250;91,50595
 909,99;24330,750;   42,117;26674,250;91,20048
 910,54;23647,150;   23,317;26212,250;90,20541
 911,10;23286,850;  225,017;26575,250;87,52041
 911,66;22823,250;  361,517;26493,250;85,95577
 912,21;22147,650;   55,317;26146,250;84,67437
 912,77;21853,650;  -49,983;25912,250;84,36729
 913,33;22339,449;  199,417;26059,250;85,61553
 913,88;22118,551;   59,317;25589,250;86,40537
 914,44;22103,250; -101,683;25406,250;87,05109
 914,99;22124,150;  -63,383;25310,250;87,44327
 915,55;22354,551;   65,717;25431,250;87,87055
 916,10;22293,750;   61,317;25895,250;86,05903
 916,66;22243,850;   75,417;25690,250;86,54529
 917,22;21769,350;  -62,983;25330,250;85,97697
 917,77;21503,150; -146,883;25060,250;85,88852
 918,33;21605,150;  176,017;25183,250;85,69174
 918,88;21079,051;   76,417;24675,250;85,38061
 919,44;20670,949;  -22,083;24374,250;84,82026
 919,99;20771,250;   67,417;24080,250;86,21987
 920,55;21005,350;  182,917;24591,250;85,30870
 921,10;20933,750;  -11,483;24567,250;85,21689
 921,66;20917,250;   64,617;24529,250;85,23583
 922,21;20699,051;  -13,783;24488,250;84,53516
 922,77;20566,449;   72,417;24253,250;84,75321
 923,32;20615,949;  360,917;24287,250;84,65582
 923,88;20256,551;  166,717;24069,250;84,04897
 924,43;20125,949;   60,917;23992,250;83,84419
 924,99;20155,449;   69,317;24057,250;83,73432
 925,54;20292,250;  -38,983;23928,250;84,82929
 926,10;20219,551;  -97,283;24213,250;83,57214
 926,65;19946,850;  158,617;24152,250;82,47285
 927,21;19687,750;  175,917;23959,250;82,03994
 927,76;19170,250;   65,717;23084,250;82,99631
 928,32;18924,750; -148,683;22343,250;84,80122
 928,87;19309,750;   28,317;21814,250;88,50405
 929,43;19611,650;    6,417;21723,250;90,27667
 929,98;19728,850;  -54,683;21489,250;91,82879
 930,54;19784,750;  -47,883;21687,250;91,24689
 931,09;19508,551;  -72,883;21319,250;91,53568
 931,65;19312,850;  -11,683;21300,250;90,67471
 932,20;19093,350;   75,517;21149,250;90,24425
 932,76;18734,949;   45,617;20978,250;89,28324
 933,31;18661,051;  123,917;20967,250;88,93555
 933,86;18294,250;   11,717;21143,250;86,51778
 934,42;18046,949;  -61,783;20981,250;86,05571
 934,97;17621,150;  -68,983;20300,250;86,84732
 935,53;17190,350;    6,017;20088,250;85,56983
 936,08;16590,350;  -30,983;19235,250;86,27183
 936,63;15816,150;  -42,783;18323,250;86,34926
 937,19;15508,950;  172,717;18216,250;84,99573
 937,74;14790,750;   28,417;17019,250;86,88410
 938,30;14302,850;   79,117;16703,250;85,56075
 938,85;13701,650;  -56,983;15823,250;86,64000
 939,40;13594,350;  176,017;15605,250;86,96695
 939,96;12990,150;   71,917;14535,250;89,31713
 940,51;12280,950;    1,217;13685,250;89,73768
 941,06;11979,050;  133,317;13619,250;87,83770
 941,62;11623,650;   74,017;13061,250;88,93067
 942,17;11379,550;  132,317;12932,250;87,86947
 942,73;11532,850;  365,717;13015,250;88,28099
 943,28;10940,750; -101,383;12490,250;87,69421
 943,83;10843,050;   44,517;12603,250;85,98425
 944,39;10761,650;  -36,683;12256,250;87,84180
 944,94;10756,450;   44,017;12155,250;88,45039
 945,49;11189,650;  429,717;12477,250;89,31234
 946,05;10472,550; -121,483;11780,250;89,01252
 946,60;10728,250;  108,317;11933,250;89,80967
 947,15;10449,750;  -98,183;11881,250;88,05035
 947,70;10718,750;   13,217;12149,250;88,21279
 948,26;10698,650;  -12,683;12116,250;88,31225
 948,81;10648,650;  -67,683;12185,250;87,45933
 949,36;10649,050;  -63,383;12442,250;85,66086
 949,92;10813,250;  116,517;13110,250;82,32225
 950,47;10902,950;   55,017;13390,250;81,34791
 951,02;11104,750;   16,617;13737,250;80,81357
 951,57;11510,850;  210,317;14176,250;80,91499
 952,13;11755,350;  211,717;14322,250;81,80862
 952,68;11829,350;   97,717;14120,250;83,66272
 953,23;12278,550;  325,817;14460,250;84,56464
 953,79;12174,150;  109,417;14128,250;86,06090
 954,34;12138,850;   20,617;13943,250;87,03981
 954,89;12097,050;  -56,083;13858,250;87,34255
 955,44;12217,950;   -5,683;13949,250;87,59364
 955,99;12353,350;   75,517;14489,250;85,18149
 956,55;12499,450;   34,317;14429,250;86,59390
 957,10;12571,750;  -29,483;14643,250;85,88198
 957,65;12678,450;   10,117;14828,250;85,49210
 958,20;12912,750;   15,117;14810,250;87,17484
 958,76;13170,650;  152,417;15004,250;87,65405
 959,31;13231,150;   84,617;15202,250;86,96159
 959,86;13137,850; -110,983;15483,250;84,95982
 960,41;13435,450;  -66,083;15779,250;85,20826
 960,96;14461,750;  694,217;16822,250;85,36399
 961,52;13693,350;  -77,083;15765,250;86,92175
 962,07;13816,650;   88,117;16180,250;85,31208
 962,62;13731,150;   74,217;15901,250;86,28865
 963,17;13504,550;   28,917;15985,250;84,45319
 963,72;13252,050; -117,283;15592,250;85,10331
 964,27;13415,450;  105,817;15818,250;84,70765
 964,83;12996,650; -129,383;15507,250;83,94412
 965,38;13215,150;  -47,383;15706,250;84,18714
 965,93;13428,850;   43,417;16068,250;83,52931
 966,48;13408,550;   18,417;16081,250;83,36097
 967,03;13575,150;  158,217;16024,250;84,56388
 967,58;13407,850;  138,217;16051,250;83,38846
 968,13;13190,750;   67,417;15580,250;84,59662
 968,69;13564,850;  447,917;15953,250;84,59627
 969,24;12956,250;  -49,083;15348,250;84,46484
 969,79;12983,950;  -97,283;15399,250;84,41393
 970,34;13097,150;  -26,883;15405,250;85,04355
 970,89;13304,350;   92,817;15865,250;83,76344
 971,44;13221,950;   -8,783;15588,250;84,82853
 971,99;13342,350;  250,417;15667,250;84,91973
 972,54;13037,850;   53,817;15149,250;86,01299
 973,09;12691,850; -108,683;14754,250;86,12387
 973,64;12686,550;  -42,183;14504,250;87,50415
 974,20;12761,450;   85,717;14657,250;86,98970
 974,75;13221,450;  292,117;15221,250;86,60472
 975,30;13117,250;   40,717;15114,250;86,75161
 975,85;14414,850; 1104,317;16738,250;85,13873
 976,40;13219,750;   44,917;15253,250;86,62904
 976,95;13085,550;  -51,383;15280,250;85,68515
 977,50;12953,350;  150,417;14808,250;87,34533
 978,05;12670,450;  101,317;14372,250;88,07506
 978,60;12161,350; -117,683;13672,250;89,04345
 979,15;12508,650;  285,717;14036,250;88,89062
 979,70;12071,850;  -72,683;13397,250;90,16030
 980,25;12013,650;  -57,883;13563,250;88,62356
 980,80;11889,550;  -50,783;13579,250;87,60311
 981,35;12013,650;  -20,183;13809,250;87,01610
 981,90;11969,850;    8,017;13989,250;85,55635
 982,45;12320,950;  245,117;14086,250;87,24599
 983,00;12296,750;  231,817;14151,250;86,67690
 983,55;12046,450;   73,617;13969,250;86,16256
 984,10;11987,450;    5,417;13864,250;86,45774
 984,65;12059,150;   38,517;13714,250;87,89754
 985,20;12013,950;  151,617;14020,250;85,53354
 985,75;11935,650;  167,717;13877,250;85,83760
 986,30;11764,650;   15,817;13490,250;87,19353
 986,85;11800,450;   62,717;13613,250;86,62193
 987,40;11708,350;  179,417;13708,250;85,21750
 987,95;11570,250;  -19,483;13469,250;85,92158
 988,50;11516,150;   68,517;13298,250;86,52959
 989,05;11790,150;  203,017;13352,250;88,12022
 989,60;11617,950;  105,217;13088,250;88,67522
 990,15;11612,550;  142,317;13083,250;88,63528
 990,70;11697,450;  227,617;13222,250;88,26593
 991,25;11347,550;   53,217;12742,250;89,00862
 991,79;11026,450;  -44,683;12627,250;87,36736
 992,34;11093,750;  206,917;12789,250;86,52476
 992,89;11386,950;  720,017;13305,250;84,75753
 993,44;10311,650;   40,017;12354,250;83,41269
 993,99;10038,450;  -33,783;12248,250;82,00787
 994,54; 9965,450;   52,817;12295,250;80,96947
 995,09; 9948,350;   11,117;12480,250;79,69466
 995,64;10071,250;  186,317;12702,250;78,97880
 996,19; 9963,150;  -60,183;12324,250;80,93494
 996,74;10253,850;  208,017;12647,250;80,75926
 997,28; 9999,550;    6,917;12075,250;82,80044
 997,83; 9770,250;  -90,583;11655,250;83,95176
 998,38; 9659,950;  -42,583;11822,250;81,77556
 998,93; 9587,950;   -7,583;11471,250;83,59328
 999,48; 9570,550;   -3,983;11775,250;81,28316
1000,03;10024,650;  383,017;11877,250;83,88236
1000,58; 9620,750;   -8,683;11469,250;83,89518
1001,12; 9710,050;  176,717;11570,250;83,67319
1001,67; 9478,950;   41,817;10935,250;86,63140
1002,22; 9474,850;  186,717;11159,250;84,64894
1002,77; 9326,950;  212,117;11140,250;83,40705
1003,32; 8904,650;    3,717;10700,250;83,21326
1003,86; 9029,350;  259,117;10770,250;83,43756
1004,41; 8746,550;   77,217;10801,250;80,84023
1004,96; 8573,850;   -9,883;10277,250;83,44145
1005,51; 8512,850;   39,617;10019,250;84,90525
1006,06; 8609,150;  348,017;10151,250;84,26948
1006,60; 7968,550;  -14,683; 9540,250;83,55090
1007,15; 7967,950;  220,817; 9504,250;83,45117
1007,70; 7739,850;  150,617; 9336,250;82,62069
1008,25; 7485,350;   52,917; 8849,250;84,49468
1008,80; 7250,350;  -89,983; 8669,250;83,80109
1009,34; 7564,550;  203,117; 9087,250;82,86045
1009,89; 7582,950;  113,917; 8941,250;84,61257
1010,44; 7611,150;   17,117; 8931,250;85,19093
1010,99; 7718,850;   59,617; 8962,250;86,03335
1011,53; 7715,350;  -69,283; 8870,250;87,08098
1012,08; 7763,950;  -74,283; 8873,250;87,60217
1012,63; 8123,250;   51,217; 9212,250;88,11269
1013,18; 8254,750;   34,017; 9603,250;85,90796
1013,72; 8526,750;   78,517;10012,250;85,04590
1014,27; 8748,950;  -24,883;10320,250;84,81122
1014,82; 9155,950;  174,517;10680,250;85,49078
1015,36; 9090,150;   27,617;10741,250;84,58880
1015,91; 9116,750;   17,317;10459,250;87,14319
1016,46; 9068,650;   39,217;10531,250;86,05990
1017,01; 8857,450;    1,117;10383,250;85,30360
1017,55; 8570,750;  -75,583;10099,250;84,97764
1018,10; 8536,850;   48,717;10072,250;84,68204
1018,65; 8246,350;   70,517; 9831,250;83,76249
1019,19; 8062,950;  123,517; 9869,250;81,46574
1019,74; 8041,550;  126,317; 9617,250;83,39784
1020,29; 7978,050;  108,717; 9531,250;83,51611
1020,83; 7826,250;   79,117; 9431,250;82,83814
1021,38; 7827,550;  145,417; 9293,250;83,97762
1021,93; 7617,050;   27,917; 8858,250;85,94390
1022,47; 7557,850;   39,017; 8904,250;84,81258
1023,02; 7231,950;  -78,583; 8379,250;86,43506
1023,56; 7525,450;  201,717; 8705,250;86,12577
1024,11; 7086,650;  -54,683; 8032,250;88,30706
1024,66; 7306,650;  104,717; 8132,250;89,71539
1025,20; 7077,450;  -81,983; 7647,250;92,62799
1025,75; 7236,050;   42,317; 7851,250;92,12184
1026,30; 7187,950;   76,017; 7822,250;91,81151
1026,84; 7005,250;  -63,383; 7613,250;92,07986
1027,39; 7011,650;  149,817; 7731,250;90,50839
1027,93; 6731,050;  -23,083; 7461,250;90,24362
1028,48; 6679,950;   83,017; 7601,250;87,74579
1029,03; 6648,550;  224,817; 7488,250;88,43935
1029,57; 6339,850;   29,417; 7158,250;88,51986
1030,12; 6194,250;    8,817; 7269,250;85,19372
1030,66; 6169,750;   72,117; 7090,250;86,88398
1031,21; 6194,650;   63,617; 7124,250;86,83404
1031,75; 6535,150;  455,117; 7391,250;87,65739
1032,30; 6018,750;  105,717; 7026,250;85,44187
1032,84; 5915,950;  130,517; 6896,250;85,51081
1033,39; 5637,850;   20,617; 6570,250;85,76409
1033,94; 5416,050;  -55,483; 6279,250;86,37354
1034,48; 5533,850;  208,417; 6293,250;87,51979
1035,03; 5424,250;  174,717; 6216,250;86,89075
1035,57; 5245,450;    9,117; 5989,250;87,56215
1036,12; 5089,650;  -82,383; 5918,250;86,19146
1036,66; 5279,150;   93,817; 6121,250;86,02888
1037,21; 5164,850;  -70,983; 5792,250;89,29942
1037,75; 5438,850;  309,717; 6109,250;88,44045
1038,30; 5102,550;  102,017; 5548,250;91,81636
1038,84; 4894,050;   12,717; 5484,250;89,21326
1039,39; 4657,850;  -71,583; 5258,250;88,73511
1039,93; 4723,550;  121,417; 5441,250;86,50897
1040,48; 4530,350;   79,717; 5238,250;86,27711
1041,02; 4551,150;  155,917; 5237,250;86,49764
1041,57; 4484,050;  118,817; 5209,250;85,75366
1042,11; 4523,550;  208,317; 5470,250;82,00851
1042,66; 4409,250;   42,217; 5196,250;84,73041
1043,20; 4263,450;  -92,683; 4920,250;86,89789
1043,74; 4408,150;   86,817; 5032,250;87,38027
1044,29; 4455,250;  203,917; 5054,250;87,65033
1044,83; 4256,950;   87,017; 4730,250;89,80668
1045,38; 4006,750;  -11,183; 4523,250;88,60938
1045,92; 3842,750;  -90,283; 4455,250;86,52523
1046,47; 3831,350;   -4,583; 4435,250;86,39814
1047,01; 3894,250;  124,417; 4648,250;83,33272
1047,55; 3733,250;   45,117; 4484,250;83,08228
1048,10; 3558,450;  -82,683; 4321,250;82,67912
1048,64; 3694,550;   72,217; 4347,250;84,73228
1049,19; 3705,850;   65,417; 4347,250;85,02044
1049,73; 3623,250;   60,617; 4169,250;86,71091
1050,27; 3517,050;    0,317; 4011,250;87,67868
1050,82; 3521,250;    9,617; 3886,250;90,58461
1051,36; 3370,450;   -3,383; 3809,250;88,49089
1051,91; 3470,450;  112,717; 3935,250;87,84052
1052,45; 3407,150;   89,717; 3704,250;91,78040
1052,99; 3246,550;  -13,583; 3569,250;90,99316
1053,54; 3275,150;   50,117; 3578,250;91,40905
1054,08; 3036,650;  -72,883; 3438,250;88,56209
1054,62; 3163,950;   72,817; 3575,250;88,25673
1055,17; 3104,050;  123,817; 3667,250;84,10581
1055,71; 2949,450;   62,217; 3416,250;86,08243
1056,25; 3549,050;  662,417; 4168,250;82,33801
1056,80; 2930,750;  155,417; 3420,250;85,00689
1057,34; 2646,450;  -69,883; 3073,250;86,42119
1057,88; 2671,750;    5,517; 3095,250;86,29332
1058,43; 2803,850;  135,717; 3259,250;85,42036
1058,97; 2747,750;   73,717; 3137,250;87,28592
1059,51; 2754,750;  137,317; 3181,250;85,98852
1060,06; 2890,550;  209,617; 3256,250;87,99659
1060,60; 2650,550;   25,317; 2969,250;89,17435
1061,14; 2595,250;   17,217; 3053,250;84,91453
1061,68; 2601,050;   78,617; 2906,250;89,20652
1062,23; 3057,550;  530,817; 3374,250;88,86206
1062,77; 2498,250;  113,917; 2891,250;85,84974
1063,31; 2434,850;  112,517; 2810,250;86,08462
1063,85; 2456,250;  182,917; 2818,250;86,26360
1064,40; 2172,950;   -3,983; 2684,250;80,98007
1064,94; 2182,150;   38,317; 2670,250;81,45469
1065,48; 2222,750;   75,917; 2575,250;85,89624
1066,02; 2313,950;  162,717; 2752,250;83,07417
1066,57; 2072,850;   19,117; 2384,250;86,83373
1067,11; 2040,350;   24,817; 2387,250;85,31599
1067,65; 2119,650;   89,017; 2444,250;86,21792
1068,19; 2084,350;   85,517; 2453,250;84,41970
1068,74; 2000,550;   19,117; 2361,250;84,59951
1069,28; 2422,650;  393,217; 2767,250;85,48461
1069,82; 2060,350;   78,617; 2285,250;89,80801
1070,36; 1989,150;   23,217; 2361,250;84,08492
1070,90; 2812,750;  797,117; 3174,250;84,79261
1071,45; 1959,650;   39,717; 2244,250;87,09024
1071,99; 1998,550;  109,017; 2301,250;86,19217
1072,53; 1918,850;   85,117; 2286,250;83,30860
1073,07; 1872,150;   70,217; 2198,250;84,67599
1073,61; 1770,550;   47,517; 2060,250;85,60664
1074,15; 1866,650;  115,617; 2173,250;85,09939
1074,70; 1847,850;  129,017; 2192,250;83,30775
1075,24; 1700,450;   86,817; 2030,250;83,03003
1075,78; 1663,750;   21,617; 1970,250;84,27103
1076,32; 1710,550;  131,417; 2069,250;81,48964
1076,86; 1645,750;   46,317; 1994,250;82,10924
1077,40; 1892,150;  269,317; 2267,250;81,22560
1077,94; 1799,450;  203,617; 2134,250;82,65854
1078,49; 1519,750;  -10,283; 1812,250;83,95091
1079,03; 1549,050;   25,217; 1830,250;84,42134
1079,57; 1621,150;  139,017; 1926,250;82,92892
1080,11; 1708,950;  204,117; 2035,250;82,18043
1080,65; 1722,450;  247,217; 2008,250;83,77089
1081,19; 2004,050;  495,317; 2373,250;80,34009
1081,73; 1479,050;   47,617; 1802,250;81,58020
1082,27; 1422,050;   21,017; 1746,250;81,20834
1082,81; 1363,950;  -45,983; 1603,250;85,49022
1083,35; 1440,550;   60,217; 1739,250;82,21000
1083,89; 1424,250;   81,117; 1634,250;86,47895
1084,44; 1765,750;  381,317; 1998,250;85,62093
1084,98; 1392,950;  107,817; 1648,250;83,42674
1085,52; 1306,850;   20,417; 1555,250;83,81583
1086,06; 1208,850;  -35,183; 1369,250;88,57902
1086,60; 1322,350;   55,917; 1536,250;85,55055
1087,14; 1210,150;  -24,983; 1428,250;84,99209
1087,68; 1352,550;  121,917; 1601,250;83,18838
1088,22; 1299,350;   58,717; 1499,250;86,12319
1088,76; 1483,550;  261,617; 1726,250;83,42930
1089,30; 1103,050;  -53,383; 1371,250;81,17411
1089,84; 1213,150;   73,717; 1421,250;84,55697
1090,38; 1444,450;  295,517; 1684,250;82,73246
1090,92; 1137,950;   68,617; 1403,250;80,12188
1091,46; 1220,950;  124,117; 1362,250;88,58765
1092,00; 1210,050;  127,517; 1405,250;84,72295
1092,54; 1070,050;    9,317; 1240,250;86,17310
1093,08; 1296,350;  191,817; 1509,250;83,83979
1093,62; 1104,550;   44,817; 1319,250;83,15330
1094,16;  993,250;  -58,083; 1216,250;82,50065
1094,70; 1013,950;  -41,383; 1224,250;83,38381
1095,24; 1121,150;   51,717; 1287,250;86,55641
1095,78; 1104,250;   37,817; 1306,250;84,07484
1096,32; 1061,050;   15,217; 1251,250;84,61207
1096,86; 1094,250;   92,517; 1253,250;86,30176
1097,40; 1098,450;  117,417; 1215,250;89,36086
1097,93; 1321,550;  346,417; 1569,250;79,74377
1098,47; 1081,850;  130,417; 1306,250;80,91566
1099,01; 1119,950;  170,717; 1317,250;82,79160
1099,55; 1047,350;  118,817; 1210,250;85,07467
1100,09;  902,850;   -8,483; 1081,250;83,62902

