
Integration time [ms]: 1000,000
Averaging Nr. [scans]: 10
Smoothing Nr. [pixels]: 0
Data measured with spectrometer [name]: 1803151U1
Wave   ;Sample   ;Dark     ;Reference;Transmittance
[nm]   ;[counts] ;[counts] ;[counts] ;[%]

 195,95;  593,825;  596,167;  594,203; 0,00000
 196,55;  576,635;  545,765;  655,894;28,03044
 197,15;  457,522;  439,192;  522,672;21,95798
 197,76;  786,467;  747,777;  777,409;130,56932
 198,36;  456,930;  453,259;  499,529; 7,93407
 198,96;  701,964;  669,874;  722,831;60,59549
 199,56;  557,260;  538,212;  575,340;51,30394
 200,16;  476,082;  485,497;  519,294;-27,85756
 200,76;  378,250;  408,256;  392,734; 0,00000
 201,36;  807,682;  799,868;  814,248;54,33551
 201,96;  377,719;  432,973;  397,088; 0,00000
 202,56;  533,649;  553,612;  564,860;-177,47873
 203,16;  632,424;  611,365;  679,414;30,94616
 203,76;  484,762;  497,072;  577,043;-15,39242
 204,36;  377,707;  405,586;  413,826;-338,34809
 204,96;  557,575;  533,631;  656,226;19,53098
 205,56;  545,755;  508,290;  474,146; 0,00000
 206,16;  418,357;  402,050;  388,849; 0,00000
 206,76;  484,601;  473,864;  445,632; 0,00000
 207,36;  669,295;  646,014;  681,391;65,80811
 207,96;  682,563;  623,758;  779,003;37,87862
 208,56;  554,505;  530,884;  580,037;48,05607
 209,16;  486,171;  476,225;  539,860;15,62859
 209,76;  384,100;  402,020;  425,757;-75,49559
 210,36;  435,303;  438,524;  429,334; 0,00000
 210,96;  495,210;  486,090;  563,403;11,79591
 211,56;  491,359;  492,810;  580,551;-1,65413
 212,16; 1097,309;  961,374; 1212,574;54,11395
 212,76;  502,755;  472,990;  575,146;29,13610
 213,36;  634,125;  612,609;  721,289;19,79723
 213,96;  567,159;  570,510;  601,551;-10,79623
 214,56;  532,039;  517,971;  600,260;17,09630
 215,16;  501,501;  498,964;  500,632;152,14996
 215,76;  922,862;  879,472; 1041,043;26,85533
 216,36;  384,138;  394,727;  379,386; 0,00000
 216,96;  780,518;  738,457;  821,260;50,79590
 217,56;  434,078;  429,435;  479,803; 9,21833
 218,16;  552,641;  583,444;  578,003; 0,00000
 218,75;  386,097;  384,416;  446,180; 2,72097
 219,35;  432,486;  418,145;  535,746;12,19453
 219,95;  595,910;  535,776;  657,363;49,45760
 220,55;  508,689;  491,549;  588,323;17,71136
 221,15;  729,896;  671,059;  761,266;65,22515
 221,75;  489,156;  454,292;  564,935;31,51033
 222,35;  580,114;  549,096;  522,769; 0,00000
 222,95;  801,049;  730,240;  880,906;46,99721
 223,55;  751,692;  697,511;  763,814;81,71756
 224,15;  634,913;  591,680;  720,940;33,44658
 224,75;  573,182;  543,583;  585,254;71,03001
 225,35;  502,472;  462,570;  535,734;54,53725
 225,95;  678,141;  622,531;  747,963;44,33526
 226,55;  473,918;  467,744;  553,220; 7,22363
 227,15;  462,174;  466,529;  501,437;-12,47766
 227,75;  753,649;  692,540;  843,906;40,37156
 228,34;  533,390;  494,693;  599,197;37,02895
 228,94;  643,800;  595,120;  643,757;100,08797
 229,54;  427,291;  449,266;  447,940; 0,00000
 230,14;  554,820;  539,903;  527,923; 0,00000
 230,74;  430,136;  465,581;  463,723; 0,00000
 231,34;  458,208;  464,288;  501,614;-16,28810
 231,94;  580,828;  567,771;  611,780;29,66962
 232,54;  418,711;  441,592;  455,191;-168,24336
 233,14;  563,934;  562,079;  627,934; 2,81767
 233,74;  430,585;  446,159;  476,786;-50,84821
 234,33;  449,920;  448,203;  511,923; 2,69426
 234,93;  471,869;  459,666;  494,157;35,37951
 235,53;  479,198;  475,318;  521,969; 8,31747
 236,13;  542,948;  529,496;  626,031;13,93447
 236,73;  531,676;  525,747;  565,054;15,08452
 237,33;  551,994;  497,499;  638,563;38,63174
 237,93;  826,028;  753,413;  922,866;42,85246
 238,53;  476,092;  473,953;  555,900; 2,61041
 239,12;  893,220;  805,846;  988,009;47,96474
 239,72;  748,870;  695,281;  762,986;79,15041
 240,32;  291,711;  348,205;  338,231; 0,00000
 240,92;  364,829;  388,715;  400,654;-200,06083
 241,52;  436,748;  423,196;  439,031;85,57971
 242,12;  660,181;  621,339;  636,380;258,24162
 242,72;  427,637;  424,925;  466,597; 6,50792
 243,31;  426,289;  416,207;  448,237;31,47843
 243,91;  525,097;  521,216;  669,180; 2,62264
 244,51;  381,337;  383,883;  406,511;-11,24801
 245,11; 1013,754;  908,604; 1029,186;87,20224
 245,71;  712,447;  638,138;  791,117;48,57469
 246,31;  754,710;  708,090;  876,403;27,69828
 246,90;  834,337;  773,683;  913,511;43,37785
 247,50;  398,036;  424,681;  414,723; 0,00000
 248,10;  498,497;  505,574;  511,094;-128,20086
 248,70;  340,526;  343,653;  363,163;-16,03138
 249,30;  488,513;  500,351;  547,894;-24,90041
 249,90;  398,827;  398,027;  397,906; 0,00000
 250,49;  499,344;  484,948;  525,580;35,42972
 251,09;  452,186;  439,603;  429,660; 0,00000
 251,69;  584,653;  558,002;  647,397;29,81199
 252,29;  562,316;  511,298;  644,557;38,28471
 252,89;  492,921;  493,319;  540,751;-0,83879
 253,48;  455,637;  450,683;  477,511;18,46800
 254,08;  362,100;  350,820;  353,757;384,06538
 254,68;  316,834;  325,779;  331,934;-145,30626
 255,28;  511,459;  519,468;  533,466;-57,21300
 255,88;  480,000;  444,120;  512,757;52,27460
 256,47;  351,128;  357,913;  424,866;-10,13463
 257,07;  478,926;  499,811;  537,077;-56,04287
 257,67;  623,190;  561,993;  717,197;39,42985
 258,27;  502,833;  508,677;  559,146;-11,57940
 258,86;  658,561;  590,456;  722,214;51,68937
 259,46;  469,021;  440,019;  462,751;127,58131
 260,06;  492,410;  509,348;  508,317; 0,00000
 260,66;  447,557;  443,022;  471,803;15,75665
 261,26;  754,777;  690,191;  795,929;61,08160
 261,85;  284,872;  318,141;  343,688;-130,22596
 262,45;  497,746;  472,794;  565,243;26,99028
 263,05;  485,214;  479,996;  590,769; 4,71099
 263,65;  307,955;  337,620;  333,014; 0,00000
 264,24;  706,863;  617,958;  733,003;77,27813
 264,84;  558,942;  547,188;  630,877;14,04422
 265,44;  597,162;  576,572;  642,043;31,44970
 266,04;  400,921;  414,019;  414,751; 0,00000
 266,63;  487,869;  460,424;  582,072;22,56153
 267,23;  262,889;  337,520;  306,277; 0,00000
 267,83;  491,398;  458,318;  566,969;30,44643
 268,42;  367,549;  371,098;  463,820;-3,82729
 269,02;  697,152;  659,716;  753,437;39,94421
 269,62;  507,591;  478,609;  549,026;41,15797
 270,22;  280,661;  294,370;  324,254;-45,87336
 270,81;  517,005;  479,726;  588,123;34,39067
 271,41;  446,363;  471,987;  547,871;-33,76747
 272,01;  474,579;  475,493;  486,717;-8,14534
 272,61;  464,237;  435,525;  504,597;41,56799
 273,20;  570,371;  550,097;  581,814;63,92042
 273,80;  389,519;  391,959;  394,049;-116,79350
 274,40;  314,516;  310,355;  304,471; 0,00000
 274,99;  444,520;  449,617;  446,963; 0,00000
 275,59;  550,021;  510,361;  570,837;65,57900
 276,19;  618,966;  568,633;  710,534;35,47007
 276,78;  500,035;  437,823;  529,809;67,63270
 277,38;  370,272;  350,427;  391,649;48,14216
 277,98;  402,601;  397,436;  387,586; 0,00000
 278,57;  381,237;  349,225;  388,597;81,30573
 279,17;  452,966;  428,320;  560,494;18,64692
 279,77; 1023,231;  909,717; 1052,443;79,53272
 280,37;  398,197;  429,788;  428,134; 0,00000
 280,96;  363,872;  367,041;  382,688;-20,25514
 281,56;  277,325;  285,167;  325,203;-19,58705
 282,16;  358,133;  375,035;  381,060;-280,50568
 282,75;  354,110;  326,676;  371,363;61,39152
 283,35;  425,317;  420,713;  503,386; 5,56834
 283,95;  403,826;  398,325;  398,117; 0,00000
 284,54;  398,792;  397,524;  443,854; 2,73624
 285,14;  431,693;  413,926;  481,643;26,23769
 285,73;  576,530;  521,073;  586,569;84,67264
 286,33;  353,404;  338,540;  416,163;19,14926
 286,93;  366,693;  360,326;  435,643; 8,45398
 287,52;  461,706;  470,299;  513,866;-19,72524
 288,12;  528,032;  507,090;  609,186;20,51211
 288,72;  533,059;  519,581;  586,505;20,13806
 289,31;  505,461;  493,927;  616,168; 9,43515
 289,91;  700,119;  624,159;  754,049;58,48050
 290,51;  459,836;  410,081;  564,723;32,17436
 291,10;  525,474;  499,687;  557,351;44,71923
 291,70;  328,479;  352,764;  345,671; 0,00000
 292,29;  506,422;  450,805;  528,711;71,38891
 292,89;  409,534;  391,079;  477,934;21,24858
 293,49;  508,133;  469,535;  531,060;62,73630
 294,08;  261,698;  256,832;  281,008;20,12686
 294,68;  364,348;  348,154;  382,946;46,54687
 295,28;  461,121;  437,061;  580,837;16,73401
 295,87;  410,119;  370,601;  441,134;56,02664
 296,47;  448,122;  405,663;  467,626;68,52375
 297,06;  501,187;  462,761;  529,574;57,51260
 297,66;  317,846;  333,008;  247,283; 0,00000
 298,26;  210,558;  227,824;  168,591; 0,00000
 298,85;  489,556;  458,764;  568,889;27,96123
 299,45;  437,389;  393,907;  435,237;105,20727
 300,04;  425,710;  391,090;  448,403;60,40468
 300,64;  444,389;  387,049;  517,323;44,01490
 301,23;  501,717;  480,613;  508,386;75,98717
 301,83;  490,708;  433,988;  492,614;96,74848
 302,43;  449,260;  432,225;  515,380;20,48486
 303,02;  392,726;  356,753;  447,163;39,78818
 303,62;  419,276;  384,089;  488,140;33,81673
 304,21;  595,479;  513,479;  725,677;38,64314
 304,81;  593,286;  509,803;  617,660;77,40188
 305,40;  448,055;  395,048;  520,060;42,40141
 306,00;  418,613;  385,051;  462,894;43,11466
 306,59;  494,528;  450,213;  576,866;34,98909
 307,19;  328,290;  309,364;  330,151;91,04480
 307,79;  439,145;  404,392;  402,454; 0,00000
 308,38;  490,009;  400,961;  536,535;65,68258
 308,98;  335,820;  310,803;  375,923;38,41670
 309,57;  329,011;  331,505;  367,231;-6,98320
 310,17;  419,429;  485,429;  505,516;-328,57234
 310,76;  469,111;  530,164;  513,968; 0,00000
 311,36;  405,975;  415,116;  465,220;-18,24585
 311,95;  330,756;  300,506;  382,974;36,68016
 312,55;  707,250;  691,727;  756,688;23,89521
 313,14;  274,078;  272,607;  347,757; 1,95815
 313,74;  290,584;  291,857;  318,997;-4,68990
 314,33;  469,125;  412,709;  537,289;45,28476
 314,93;  524,705;  481,184;  669,037;23,16761
 315,52;  504,582;  473,355;  576,208;30,36113
 316,12;  412,880;  365,295;  466,506;47,01606
 316,71; 1228,699; 1082,934; 1388,797;47,65712
 317,31;  227,045;  244,550;  258,368;-126,67759
 317,90;  309,187;  325,918;  414,488;-18,89014
 318,50;  291,884;  298,157;  308,997;-57,86543
 319,09;  254,952;  243,602;  274,397;36,85784
 319,69;  401,509;  366,246;  451,528;41,34821
 320,28;  450,999;  430,076;  540,883;18,88228
 320,88;  384,103;  358,224;  455,334;26,64892
 321,47;  277,184;  284,657;  316,997;-23,10681
 322,07;  291,038;  327,040;  356,426;-122,51941
 322,66;  310,500;  283,278;  337,671;50,04727
 323,26;  346,520;  304,546;  461,009;26,82682
 323,85;  397,845;  390,250;  466,368; 9,97825
 324,45;  254,525;  250,967;  311,203; 5,90709
 325,04;  308,136;  273,981;  349,723;45,09398
 325,64;  396,535;  373,737;  464,848;25,02227
 326,23;  343,987;  325,461;  372,574;39,32250
 326,83;  525,174;  461,487;  577,351;54,96692
 327,42;  368,058;  352,024;  446,591;16,95555
 328,01;  396,528;  366,771;  380,780;212,41504
 328,61;  186,192;  201,324;  201,854; 0,00000
 329,20;  513,145;  441,892;  600,454;44,93672
 329,80;  237,060;  219,154;  300,426;22,03167
 330,39;  369,887;  340,261;  390,574;58,88318
 330,99;  250,856;  246,164;  302,889; 8,27193
 331,58;  289,058;  291,466;  309,677;-13,22346
 332,17;  445,700;  415,478;  576,671;18,74916
 332,77;  617,216;  551,998;  695,557;45,42926
 333,36;  368,631;  319,817;  429,443;44,52758
 333,96;  196,212;  226,650;  254,106;-110,86022
 334,55;  272,738;  244,927;  312,386;41,22738
 335,15;  297,499;  281,076;  306,883;63,63789
 335,74;  368,549;  324,398;  372,820;91,18054
 336,33;  281,958;  273,266;  372,677; 8,74327
 336,93;  347,773;  342,885;  418,563; 6,45829
 337,52;  347,725;  364,367;  439,203;-22,23778
 338,12;  390,774;  365,387;  376,351;231,54335
 338,71;  342,864;  325,574;  427,831;16,90828
 339,30;  514,027;  469,169;  573,991;42,79405
 339,90;  281,389;  296,678;  320,191;-65,02223
 340,49;  350,639;  308,185;  411,300;41,17162
 341,08;  348,861;  360,527;  417,168;-20,59705
 341,68;  353,358;  338,766;  342,677;373,06327
 342,27;  455,200;  434,478;  491,671;36,23217
 342,87;  343,399;  336,534;  389,797;12,88981
 343,46;  554,337;  487,625;  678,597;34,93280
 344,05;  388,224;  381,965;  426,414;14,08037
 344,65;  506,937;  454,925;  565,597;46,99638
 345,24;  479,926;  421,711;  502,077;72,43740
 345,83;  518,408;  450,530;  579,700;52,54895
 346,43;  273,634;  251,979;  330,934;27,42756
 347,02;  275,875;  241,731;  342,226;33,97592
 347,61;  238,406;  264,100;  278,866;-174,00440
 348,21;  523,549;  470,398;  651,820;29,29704
 348,80;  159,464;  181,974;  214,831;-68,50699
 349,40;  267,836;  257,281;  293,723;28,96410
 349,99;  299,066;  274,920;  362,494;27,57244
 350,58;  355,572;  351,799;  346,603; 0,00000
 351,18;  378,246;  348,394;  391,243;69,66891
 351,77;  289,585;  292,759;  359,786;-4,73437
 352,36;  275,500;  233,120;  312,757;53,21613
 352,96;  195,683;  178,899;  174,083; 0,00000
 353,55;  423,347;  401,210;  401,071; 0,00000
 354,14;  339,627;  308,069;  425,991;26,76145
 354,73;  186,479;  179,493;  216,717;18,76671
 355,33;  270,289;  257,207;  358,237;12,94926
 355,92;  356,335;  322,637;  350,848;119,44694
 356,51;  214,380;  189,609;  217,546;88,66805
 357,11;  269,808;  224,301;  350,654;36,01513
 357,70;  360,394;  325,642;  389,471;54,44610
 358,29;  269,004;  239,940;  383,163;20,29299
 358,89;  283,464;  258,531;  329,746;35,01091
 359,48;  299,584;  261,628;  296,951;107,45301
 360,07;  507,847;  425,010;  566,071;58,72444
 360,66;  346,795;  329,199;  445,385;15,14416
 361,26;  513,631;  465,460;  584,351;40,51674
 361,85;  376,136;  280,010;  397,591;81,75320
 362,44;  368,987;  316,903;  448,482;39,58338
 363,04;  317,657;  263,709;  374,585;48,65669
 363,63;  306,086;  251,259;  326,608;72,76373
 364,22;  428,377;  339,048;  515,876;50,51725
 364,81;  386,642;  275,403;  479,739;54,43914
 365,41;  561,040;  381,101;  603,951;80,74470
 366,00;  296,520;  144,618;  338,785;78,23275
 366,59;  591,019;  384,102;  706,957;64,08985
 367,18;  908,907;  611,786;  989,648;78,63211
 367,78;  470,173;  257,228;  529,471;78,21859
 368,37;  466,406;  259,171;  499,820;86,11520
 368,96;  437,475;  231,074;  497,134;77,57695
 369,55;  560,670;  353,911;  630,854;74,65771
 370,15;  449,752;  287,287;  517,391;70,60498
 370,74;  573,838;  414,012;  595,380;88,12255
 371,33;  488,489;  359,678;  554,191;66,22241
 371,92;  641,637;  507,468;  683,505;76,21617
 372,51;  472,609;  358,475;  534,397;64,87776
 373,11;  304,900;  257,321;  342,579;55,80608
 373,70;  291,993;  237,611;  348,637;48,98124
 374,29;  249,156;  199,264;  293,711;52,82574
 374,88;  435,895;  305,757;  492,299;69,76332
 375,48;  416,257;  247,051;  495,671;68,05811
 376,07;  466,928;  307,842;  539,734;68,60354
 376,66;  330,632;  192,304;  413,225;62,61401
 377,25;  270,104;  157,869;  267,031;102,81553
 377,84;  595,606;  441,671;  697,820;60,09599
 378,44;  486,648;  372,939;  557,939;61,46407
 379,03;  300,935;  209,508;  359,802;60,83175
 379,62;  320,968;  232,664;  378,191;60,67837
 380,21;  245,116;  182,440;  298,465;54,01873
 380,80;  345,686;  251,746;  341,568;104,58482
 381,39;  214,786;  141,246;  214,568;100,29757
 381,99;  381,777;  273,076;  419,922;74,02332
 382,58;  507,601;  381,907;  536,540;81,28548
 383,17;  569,092;  407,596;  634,808;71,07714
 383,76;  691,468;  520,051;  781,151;65,65189
 384,35;  563,941;  413,216;  647,957;64,20908
 384,94;  686,218;  510,329;  819,214;56,94312
 385,54;  568,874;  433,572;  640,345;65,43474
 386,13;  312,236;  234,224;  318,631;92,42348
 386,72;  500,397;  362,859;  545,088;75,47522
 387,31;  383,104;  274,169;  413,031;78,44873
 387,90;  315,622;  231,248;  333,620;82,41901
 388,49;  316,749;  216,241;  354,728;72,57600
 389,08;  686,348;  510,239;  758,939;70,81162
 389,68;  439,987;  300,190;  483,442;76,28675
 390,27;  393,464;  276,103;  458,700;64,27346
 390,86;  407,623;  288,992;  531,494;48,91938
 391,45;  398,967;  272,407;  379,277;118,42452
 392,04;  573,324;  418,737;  637,368;70,70665
 392,63;  276,929;  154,100;  320,648;73,74961
 393,22;  342,023;  219,592;  362,494;85,67457
 393,81;  333,256;  186,435;  364,843;82,29525
 394,41;  317,085;  225,044;  350,779;73,20194
 395,00;  310,491;  210,651;  334,934;80,33269
 395,59;  202,489;  109,192;  228,231;78,37502
 396,18;  360,277;  255,576;  435,922;58,05526
 396,77;  401,954;  228,433;  454,054;76,90837
 397,36;  773,611;  560,463;  851,145;73,32675
 397,95;  406,072;  284,813;  447,642;74,46978
 398,54;  275,969;  160,509;  298,065;83,93629
 399,13;  490,153;  335,031;  550,265;72,07112
 399,72;  226,774;  123,672;  244,345;85,43865
 400,31;  321,857;  230,409;  366,585;67,15464
 400,90;  461,368;  279,551;  563,151;64,11040
 401,50;  422,566;  297,462;  419,402;102,59445
 402,09;  494,361;  343,999;  495,122;99,49616
 402,68;  456,986;  322,546;  506,568;73,05665
 403,27;  313,077;  169,076;  328,922;90,08687
 403,86;  372,720;  220,388;  403,917;83,00145
 404,45;  291,882;  139,526;  313,163;87,74435
 405,04;  544,365;  331,947;  629,574;71,37057
 405,63;  421,830;  234,044;  453,523;85,55992
 406,22;  326,663;  173,459;  379,825;74,23895
 406,81;  433,284;  258,586;  495,865;73,62559
 407,40;  536,568;  308,593;  622,237;72,68581
 407,99;  550,565;  382,161;  706,614;51,90393
 408,58;  580,332;  409,062;  613,140;83,92411
 409,17;  631,873;  421,014;  727,431;68,81438
 409,76;  606,792;  408,753;  628,722;90,03039
 410,35;  365,062;  181,943;  444,997;69,61275
 410,94;  452,523;  282,092;  539,494;66,21183
 411,53;  607,145;  422,335;  713,362;63,50255
 412,12;  431,785;  228,172;  454,825;89,83439
 412,71;  341,642;  187,531;  396,785;73,64762
 413,30;  393,341;  223,116;  430,957;81,90157
 413,89;  282,004;  128,169;  322,031;79,35308
 414,48;  342,910;  174,519;  372,271;85,15259
 415,07;  571,529;  339,087;  604,608;87,54185
 415,66;  408,900;  210,049;  463,625;78,41869
 416,25;  634,084;  401,128;  720,951;72,83893
 416,84;  763,808;  522,717;  873,482;68,73295
 417,43;  414,618;  224,229;  435,214;90,23801
 418,02;  456,977;  260,476;  491,922;84,90113
 418,61;  379,761;  207,299;  454,122;69,87264
 419,20;  395,873;  211,514;  469,431;71,47996
 419,79;  363,802;  182,209;  418,328;76,90750
 420,38;  456,656;  258,193;  551,757;67,60490
 420,97;  694,846;  426,266;  786,197;74,62000
 421,56;  438,996;  220,044;  506,260;76,49893
 422,15;  389,580;  195,180;  404,500;92,87219
 422,74;  671,765;  432,261;  744,614;76,67729
 423,33;  515,808;  276,559;  566,568;82,49699
 423,92;  578,493;  351,798;  661,597;73,17508
 424,51;  456,156;  250,135;  563,843;65,67292
 425,10;  461,210;  243,519;  519,271;78,94447
 425,69;  408,091;  184,038;  414,894;97,05330
 426,28;  438,498;  211,890;  530,923;71,02987
 426,87;  508,418;  245,115;  545,174;87,75041
 427,46;  874,965;  551,689;  901,660;92,37216
 428,04;  377,432;  132,690;  425,186;83,67382
 428,63;  510,713;  240,165;  570,934;81,79349
 429,22;  401,421;  193,533;  545,791;59,01576
 429,81;  561,294;  284,884;  668,557;72,04312
 430,40;  345,569;  101,795;  400,026;81,74017
 430,99;  587,268;  311,551;  658,151;79,54907
 431,58;  865,476;  534,518;  889,008;93,36172
 432,17;  780,077;  478,063;  818,883;88,61412
 432,76;  597,017;  322,671;  739,300;65,84906
 433,35;  639,173;  336,457;  696,517;84,07373
 433,94;  787,322;  502,035;  855,580;80,69341
 434,52;  362,009;  107,203;  449,443;74,45248
 435,11;  542,553;  255,460;  592,311;85,22840
 435,70;  471,816;  188,469;  574,511;73,39783
 436,29;  386,391;  126,638;  414,894;90,11205
 436,88;  629,742;  360,118;  738,745;71,21102
 437,47;  582,047;  270,810;  689,071;74,41221
 438,06;  560,737;  241,796;  611,551;86,25726
 438,65; 1206,729;  836,900; 1372,648;69,03030
 439,23;  456,744;  180,220;  650,534;58,79562
 439,82;  716,684;  387,986;  846,865;71,63067
 440,41;  619,750;  276,014;  701,648;80,75861
 441,00;  577,322;  284,335;  693,580;71,59220
 441,59;  689,821;  352,790;  723,705;90,86469
 442,18;  600,231;  254,446;  695,311;78,43331
 442,77;  515,858;  148,824;  581,591;84,81096
 443,35;  839,075;  429,003;  974,180;75,21821
 443,94;  735,150;  356,327;  803,688;84,67941
 444,53;  504,010;  161,819;  530,271;92,87260
 445,12;  727,342;  343,460;  869,831;72,92988
 445,71;  765,374;  357,101;  891,391;76,41403
 446,30;  866,578;  421,220;  953,797;83,62319
 446,88;  567,602;  157,151;  622,414;88,21911
 447,47;  710,759;  292,239;  804,420;81,71335
 448,06;  633,147;  196,310;  728,071;82,14916
 448,65;  774,648;  331,925;  880,900;80,64549
 449,24;  899,342;  407,618; 1024,745;79,67957
 449,82;  660,148;  250,325;  763,900;79,79819
 450,41;  683,030;  232,802;  716,437;93,09261
 451,00;  705,891;  248,038;  805,894;82,07376
 451,59;  561,088;  112,776;  613,403;89,55013
 452,18;  688,640;  200,258;  811,043;79,95983
 452,76;  656,162;  170,243;  746,997;84,25068
 453,35;  769,784;  246,328;  805,951;93,53719
 453,94;  723,243;  198,262;  805,620;86,43693
 454,53;  807,546;  266,366;  861,197;90,98055
 455,12;  874,315;  297,025;  996,637;82,51571
 455,70;  721,528;  166,742;  734,734;97,67501
 456,29;  796,803;  233,896;  941,288;79,57494
 456,88; 1039,823;  398,879; 1129,454;87,73145
 457,47; 1152,744;  464,706; 1355,494;77,23928
 458,05;  888,965;  279,247;  955,574;90,15138
 458,64;  891,357;  209,322; 1064,803;79,72530
 459,23;  801,568;  156,951;  883,151;88,76577
 459,82; 1064,955;  357,877; 1204,928;83,47527
 460,40;  939,484;  243,328; 1118,951;79,50405
 460,99;  923,299;  215,834; 1037,797;86,07023
 461,58; 1024,289;  281,378; 1102,191;90,50918
 462,17;  757,402;   57,151;  873,414;85,78741
 462,75;  869,742;  121,860;  959,831;89,24911
 463,34;  989,016;  220,669; 1152,511;82,45458
 463,93; 1031,322;  268,135; 1160,580;85,51647
 464,52; 1097,955;  253,820; 1195,014;89,68766
 465,10; 1040,670;  210,911; 1165,854;86,89097
 465,69; 1227,870;  346,239; 1306,900;91,77339
 466,28;  971,514;   92,609; 1089,808;88,13729
 466,86; 1226,219;  312,573; 1328,088;89,96867
 467,45;  926,684;   81,828; 1065,951;85,84858
 468,04;  955,608;   80,259;  985,568;96,69060
 468,63; 1121,030;  220,844; 1242,523;88,10850
 469,21; 1269,352;  263,316; 1380,437;90,05613
 469,80; 1359,602;  351,951; 1395,414;96,56796
 470,39; 1340,976;  307,547; 1444,054;90,93028
 470,97; 1151,131;  159,146; 1266,311;89,59686
 471,56; 1131,408;  150,117; 1226,483;91,16712
 472,15; 1341,324;  273,723; 1493,328;87,53660
 472,73; 1221,173;  167,157; 1295,517;93,41130
 473,32; 1394,114;  296,509; 1549,808;87,57720
 473,91; 1168,366;   97,591; 1201,448;97,00303
 474,49; 1550,632;  365,090; 1639,186;93,04971
 475,08; 1297,290;  131,422; 1436,066;89,36298
 475,67; 1371,943;  204,104; 1415,706;96,38803
 476,25; 1592,658;  362,124; 1729,591;89,98637
 476,84; 1341,510;  109,405; 1442,231;92,44307
 477,43; 1473,703;  250,853; 1586,203;91,57531
 478,01; 1558,177;  277,663; 1713,883;89,15867
 478,60; 1317,580;   77,609; 1429,546;91,71812
 479,19; 1546,032;  222,633; 1732,271;87,66330
 479,77; 1501,122;  168,777; 1693,666;87,37325
 480,36; 1482,735;  163,694; 1663,763;87,93205
 480,94; 1517,450;  141,914; 1595,648;94,62089
 481,53; 1618,451;  244,272; 1864,563;84,81065
 482,12; 1691,693;  264,868; 1898,729;87,32844
 482,70; 1620,984;  201,114; 1772,911;90,33418
 483,29; 1564,996;  131,030; 1614,220;96,68125
 483,88; 1609,972;  121,941; 1744,688;91,69823
 484,46; 1585,212;  142,807; 1844,020;84,78687
 485,05; 1645,323;  178,979; 1862,454;87,10222
 485,63; 1830,697;  327,746; 1981,048;90,90603
 486,22; 1753,124;  228,365; 1938,414;89,16461
 486,81; 1580,146;  114,066; 1769,197;88,57791
 487,39; 1714,751;  127,800; 1900,609;89,51620
 487,98; 1684,561;  135,527; 1878,168;88,89000
 488,56; 1811,848;  238,268; 2083,985;85,25574
 489,15; 1899,534;  273,950; 2084,888;89,76476
 489,74; 2024,561;  367,227; 2288,168;86,27717
 490,32; 1835,477;  191,762; 2045,883;88,65201
 490,91; 1825,887;  111,018; 2030,488;89,34075
 491,49; 1804,512;  123,807; 2015,020;88,86917
 492,08; 1850,148;  198,468; 1982,985;92,55611
 492,66; 2156,160;  394,683; 2373,294;89,02593
 493,25; 1854,296;  127,730; 2042,220;90,18415
 493,84; 2069,551;  263,514; 2352,648;86,44904
 494,42; 1985,205;  195,742; 2225,951;88,14182
 495,01; 2063,374;  302,059; 2338,305;86,49814
 495,59; 2008,936;  198,838; 2206,637;90,15336
 496,18; 1874,869;  102,295; 2154,026;86,39410
 496,76; 2030,897;  190,646; 2179,048;92,54925
 497,35; 1964,356;   94,122; 2080,803;94,13865
 497,93; 2163,929;  267,987; 2369,608;90,21331
 498,52; 1997,273;  125,657; 2147,517;92,56901
 499,10; 2162,669;  253,537; 2386,111;89,52240
 499,69; 2446,183;  439,470; 2646,037;90,94278
 500,27; 2398,541;  444,344; 2663,003;88,08010
 500,86; 2378,227;  395,869; 2612,991;89,41129
 501,44; 2518,471;  492,197; 2706,814;91,49544
 502,03; 2142,073;  139,585; 2333,563;91,27202
 502,61; 2186,652;  193,516; 2474,437;87,38294
 503,20; 2060,718;   77,357; 2241,260;91,65663
 503,78; 2257,061;  255,870; 2564,254;86,69227
 504,37; 2069,534;  113,079; 2290,934;89,83404
 504,95; 2530,495;  496,486; 2901,345;84,57914
 505,54; 2079,927;   82,769; 2356,991;87,81717
 506,12; 2353,796;  281,772; 2689,306;86,06417
 506,71; 2263,297;  134,316; 2492,180;90,29277
 507,29; 2287,126;  132,025; 2517,117;90,35714
 507,88; 2289,322;  128,705; 2497,711;91,20350
 508,46; 2186,823;   30,321; 2350,540;92,94390
 509,05; 2354,970;  130,639; 2490,900;94,24090
 509,63; 2771,523;  489,821; 3104,540;87,26375
 510,22; 2334,728;  130,885; 2626,820;88,29729
 510,80; 2825,715;  500,711; 3053,597;91,07356
 511,39; 2719,119;  406,259; 3042,049;87,74828
 511,97; 2497,340;  242,600; 2745,128;90,09847
 512,55; 2939,330;  554,931; 3283,483;87,38700
 513,14; 2466,708;  122,288; 2717,614;90,33238
 513,72; 2691,413;  297,551; 3072,894;86,25463
 514,31; 2707,001;  319,136; 3014,586;88,58874
 514,89; 2823,741;  387,002; 3156,917;87,97163
 515,48; 2684,439;  231,185; 3001,300;88,56145
 516,06; 2831,683;  286,641; 3017,169;93,20696
 516,65; 2628,778;  183,907; 2999,757;86,82534
 517,23; 2444,692;   12,724; 2762,854;88,43101
 517,81; 2669,576;  157,247; 2910,054;91,26426
 518,40; 2808,573;  239,785; 3045,563;91,55350
 518,98; 2842,634;  270,492; 3025,974;93,34634
 519,57; 2723,316;  142,555; 2978,471;91,00272
 520,15; 2657,689;   85,607; 2875,237;92,20155
 520,73; 2841,344;  183,906; 3031,494;93,32243
 521,32; 2912,448;  235,310; 3241,071;89,06687
 521,90; 2792,072;  127,399; 3157,603;87,93711
 522,49; 3364,571;  602,083; 3710,774;88,86339
 523,07; 2851,297;  113,074; 3203,094;88,61506
 523,65; 3268,384;  453,957; 3598,997;89,48779
 524,24; 2997,197;  256,588; 3427,134;86,43965
 524,82; 3042,443;  262,904; 3435,706;87,60519
 525,40; 3131,227;  271,269; 3623,991;85,30255
 525,99; 2912,406;    3,486; 3256,826;89,41337
 526,57; 3116,119;  165,559; 3463,049;89,47898
 527,16; 3301,940;  266,129; 3757,174;86,95994
 527,74; 3031,594;   60,270; 3356,517;90,14265
 528,32; 3313,792;  278,824; 3874,854;84,39772
 528,91; 3152,189;   53,307; 3557,237;88,44019
 529,49; 3248,883;  135,112; 3620,123;89,34752
 530,07; 3328,802;  163,880; 3616,460;91,66832
 530,66; 3270,057;   45,650; 3485,849;93,72734
 531,24; 3404,272;   97,441; 3692,688;91,97783
 531,82; 3403,326;  104,583; 3691,031;91,97800
 532,41; 3569,951;  166,158; 3840,523;92,63624
 532,99; 3503,972;  128,241; 3909,688;89,27086
 533,57; 3504,729;  154,587; 3928,608;88,76850
 534,16; 3624,103;  191,638; 3922,374;92,00502
 534,74; 3582,805;   94,742; 3900,951;91,64140
 535,32; 3922,990;  346,564; 4316,151;90,09565
 535,90; 3895,487;  221,161; 4334,574;89,32547
 536,49; 3806,357;   82,766; 4318,677;87,90532
 537,07; 3723,129;    6,987; 4105,608;90,66810
 537,65; 4258,908;  406,301; 4641,654;90,96305
 538,24; 3882,005;   45,584; 4272,037;90,77165
 538,82; 4036,078;  109,449; 4459,843;90,25915
 539,40; 4351,459;  314,354; 4753,426;90,94481
 539,99; 4314,664;  253,031; 4655,746;92,25293
 540,57; 4211,329;  106,029; 4555,694;92,26086
 541,15; 4426,183;  313,470; 4972,037;88,28279
 541,73; 4439,025;  235,181; 5029,243;87,68857
 542,32; 4368,034;   59,979; 4876,934;89,43524
 542,90; 4602,309;  180,246; 5197,528;88,13661
 543,48; 4936,626;  315,011; 5470,077;89,65191
 544,06; 4719,528;  175,685; 5214,820;90,17109
 544,65; 5006,478;  431,135; 5594,803;88,60646
 545,23; 4779,117;   28,542; 5331,432;89,58464
 545,81; 5522,241;  592,644; 6081,003;89,81914
 546,39; 5069,143;   53,533; 5563,751;91,02380
 546,98; 5282,553;  208,802; 5849,397;89,95063
 547,56; 5361,458;  194,766; 5993,677;89,09761
 548,14; 5690,541;  332,744; 6316,003;89,54647
 548,72; 5701,919;  338,559; 6315,048;89,74098
 549,31; 5609,219;  130,259; 6114,048;91,56339
 549,89; 5786,325;  183,209; 6411,289;89,96538
 550,47; 5777,296;  186,672; 6618,306;86,92385
 551,05; 5767,376;  117,447; 6471,054;88,92474
 551,63; 6183,176;  405,847; 7060,054;86,82220
 552,22; 6150,175;  207,545; 6906,266;88,71291
 552,80; 6085,544;  160,506; 6857,494;88,47318
 553,38; 6279,280;  194,737; 6941,591;90,18340
 553,96; 6356,416;  187,355; 7007,471;90,45390
 554,54; 6538,181;  317,211; 7292,334;89,18796
 555,13; 6568,764;  171,774; 7328,832;89,38016
 555,71; 6468,777;   -0,409; 7221,929;89,57192
 556,29; 7010,750;  364,598; 7921,820;87,94437
 556,87; 6857,934;  140,079; 7737,934;88,41778
 557,45; 6962,460;  100,783; 7782,294;89,32718
 558,03; 7066,074;   68,429; 7873,437;89,65583
 558,62; 7300,833;  204,577; 8119,146;89,66068
 559,20; 7247,469;  109,724; 7858,071;92,11958
 559,78; 7578,053;  301,602; 8361,397;90,28084
 560,36; 7492,533;  146,135; 8000,060;93,53792
 560,94; 7643,968;  170,579; 8206,197;93,00329
 561,52; 8028,116;  349,498; 8708,558;91,85983
 562,11; 7745,683;  127,199; 8583,083;90,09684
 562,69; 7893,694;  209,070; 8587,518;91,71895
 563,27; 7774,201;   22,178; 8555,672;90,84231
 563,85; 8147,879;  234,093; 8809,717;92,28234
 564,43; 8049,856;  -16,036; 8981,889;89,64169
 565,01; 8264,807;  123,786; 9061,826;91,08284
 565,59; 8217,686;   69,245; 9219,746;89,04912
 566,18; 8308,011;   96,292; 9514,191;87,19268
 566,76; 8456,942;   98,804; 9588,705;88,07403
 567,34; 8658,402;  190,580; 9941,460;86,84162
 567,92; 8859,287;  215,247; 9802,534;90,16148
 568,50; 8712,644;  203,890; 9758,666;89,05236
 569,08; 8965,743;  304,190;10092,666;88,48725
 569,66; 8858,102;  147,022;10132,546;87,23708
 570,24; 8935,669;  139,895;10332,025;86,29966
 570,82; 9289,013;  340,694;10330,980;89,57019
 571,40; 8955,451;   92,358;10403,522;85,95628
 571,99; 8886,779;   91,851;10287,632;86,26047
 572,57; 9102,819;  141,346;10310,009;88,12834
 573,15; 9667,893;  346,068;10899,729;88,32788
 573,73; 9289,975;   15,187;10499,352;88,46473
 574,31; 9516,577;   95,905;11004,969;86,35638
 574,89; 9715,632;  149,519;11231,231;86,32342
 575,47; 9483,580;   -6,605;10925,506;86,81018
 576,05; 9797,355;  187,920;11315,014;86,36070
 576,63; 9811,273;  148,829;11593,438;84,42792
 577,21; 9846,896;   62,730;11457,220;85,86753
 577,79;10176,507;  141,886;11475,826;88,53603
 578,37;10046,197;  -14,626;11325,095;88,72197
 578,95;10272,293;   72,768;11554,729;88,83087
 579,53;10393,325;   70,609;11722,289;88,59423
 580,11;10461,351;  -30,500;11642,608;89,88052
 580,69;10826,076;  235,789;12012,140;89,92843
 581,27;11324,303;  486,524;12673,334;88,93040
 581,85;11080,559;  133,668;12270,466;90,19587
 582,43;11382,203;  256,482;12719,249;89,27168
 583,01;11385,587;  149,961;12450,574;91,34200
 583,59;11267,678;   63,349;12618,843;89,23846
 584,17;11300,813;  177,451;12709,895;88,75653
 584,75;11365,069;  127,424;13157,071;86,24674
 585,33;11426,807;  210,086;13246,826;86,03931
 585,91;11712,425;  216,809;13206,289;88,49943
 586,49;11735,570;  112,739;13048,900;89,84761
 587,07;11685,257;  133,322;13130,803;88,87826
 587,65;11914,905;  198,042;13589,951;87,49211
 588,23;11963,208;  168,930;13929,700;85,70943
 588,81;11978,141;  204,087;13965,089;85,56102
 589,39;11918,363;  105,816;13862,917;85,86509
 589,97;12263,794;  358,670;14148,518;86,33253
 590,55;11924,471;   93,983;13669,774;87,14400
 591,13;11811,335;  136,794;13993,763;84,25032
 591,71;11975,426;  200,911;14197,077;84,12671
 592,29;11839,647;  112,596;13972,031;84,61421
 592,87;11919,359;  240,968;14238,466;83,43199
 593,45;11726,351;   64,500;14245,608;82,23511
 594,03;12064,540;  341,787;14914,089;80,44545
 594,61;11585,740;   35,600;14391,128;80,45779
 595,19;11820,902;  106,780;14196,460;83,13973
 595,77;11793,365;   59,775;14305,620;82,36500
 596,35;11840,791;  116,009;14522,025;81,38809
 596,93;11671,813;   -0,793;14268,020;81,80502
 597,51;11850,889;  109,820;14675,277;80,60899
 598,09;11957,769;  132,937;14556,111;81,98494
 598,66;12262,205;  261,984;15151,037;80,59761
 599,24;12082,681;   46,695;14946,506;80,77945
 599,82;12303,481;  266,397;15451,294;79,27011
 600,40;11952,271;   94,139;15304,900;77,95883
 600,98;12187,761;  314,527;15569,168;77,83358
 601,56;12055,788;   65,962;15159,363;79,43754
 602,14;12353,672;  130,827;15106,648;81,61719
 602,72;12568,954;  140,704;15285,186;82,06455
 603,30;12537,084;  148,957;15174,997;82,44439
 603,87;12700,651;  164,687;15561,568;81,41885
 604,45;12719,755;  173,262;15691,100;80,85207
 605,03;12444,154;   21,904;15241,186;81,62179
 605,61;12730,248;  189,754;15606,945;81,34098
 606,19;12688,173;   26,085;15629,563;81,14914
 606,77;12948,885;  251,701;15800,871;81,65827
 607,35;12530,948;  -15,404;15513,031;80,79598
 607,93;12545,823;   29,807;15862,500;79,05172
 608,50;12865,331;  234,275;16284,357;78,69776
 609,08;12702,491;  104,609;15967,025;79,41969
 609,66;12901,692;  344,211;16227,814;79,05940
 610,24;12600,544;  283,706;16148,494;77,63632
 610,82;12140,309;   40,246;15783,528;76,85858
 611,40;12352,676;  300,347;16117,055;76,19998
 611,97;11885,449;   18,498;15772,820;75,32505
 612,55;11587,922;  -33,695;15885,712;73,00283
 613,13;11652,773;  222,929;16150,438;71,76166
 613,71;11572,248;  272,196;16563,031;69,36447
 614,29;11340,970;  168,681;16504,986;68,38932
 614,87;11133,131;  102,717;16499,443;67,27205
 615,44;11199,909;  223,190;16671,402;66,73503
 616,02;11006,454;   30,662;16365,100;67,19418
 616,60;10764,791;   32,309;16355,025;65,75181
 617,18;10865,912;  219,536;16718,066;64,52924
 617,76;10693,138;  236,783;16766,512;63,25787
 618,33;10380,757;   50,508;16532,764;62,67497
 618,91;10394,349;  202,340;16699,906;61,77886
 619,49;10394,984;  371,101;17053,871;60,08525
 620,07;10065,911;  227,092;16934,191;58,89005
 620,64;10039,037;  168,625;17012,598;58,59908
 621,22; 9666,580;   -2,705;16906,506;57,18354
 621,80; 9818,123;   38,107;16886,500;58,04717
 622,38;10163,649;  397,898;17009,820;58,78761
 622,95; 9968,602;  192,022;17175,545;57,56509
 623,53; 9663,151;    2,558;17111,523;56,46509
 624,11; 9678,595;  104,470;17423,518;55,28090
 624,69; 9487,357;   36,608;17192,764;55,08664
 625,26; 9387,361;   46,227;17559,168;53,33847
 625,84; 9422,743;   40,990;17414,666;53,99982
 626,42; 9392,204;  128,740;17431,162;53,53854
 627,00; 9513,294;  162,384;17470,557;54,02598
 627,57; 9549,400;  215,192;17828,711;52,99457
 628,15; 9228,318;  -10,699;17314,135;53,32817
 628,73; 9615,735;  285,481;17438,723;54,39353
 629,31; 9411,725;  124,423;17090,328;54,74097
 629,88; 9511,894;  155,412;17335,604;54,46087
 630,46; 9376,633;  -33,623;17278,146;54,35756
 631,04; 9611,913;   94,651;17624,895;54,29053
 631,61; 9762,623;  116,107;17673,500;54,94276
 632,19; 9603,834;  -24,379;17531,020;54,84474
 632,77; 9648,359;  101,025;17924,379;53,56643
 633,34; 9594,465;   -2,425;17809,619;53,87865
 633,92; 9854,487;  160,661;18271,574;53,52478
 634,50; 9566,511;   23,205;18098,230;52,79830
 635,08; 9698,077;  313,705;18323,969;52,10569
 635,65; 9519,384;  167,599;18408,082;51,26939
 636,23; 9472,968;   88,579;18257,197;51,65164
 636,81; 9805,935;  264,679;18562,934;52,14298
 637,38; 9566,136;  -24,719;18197,723;52,63211
 637,96; 9603,691;  -30,076;18263,854;52,66101
 638,54; 9918,937;  245,538;18562,637;52,81076
 639,11; 9693,965;   39,718;18623,705;51,94928
 639,69;10009,318;  324,144;19141,221;51,47013
 640,26; 9806,851;   50,764;18713,994;52,27437
 640,84;10132,171;  159,565;18590,242;54,10873
 641,42; 9947,492;   62,265;18551,490;53,46480
 641,99; 9891,612;   25,066;18605,738;53,10113
 642,57; 9992,934;  102,367;18751,986;53,03361
 643,15;10131,854;  284,167;18910,234;52,87046
 643,72; 9714,275;  -34,932;18914,484;51,44859
 644,30; 9783,796;    6,968;19057,732;51,31987
 644,87;10036,717;  175,469;19486,980;51,06409
 645,45; 9923,837;  -43,330;19192,229;51,81636
 646,03;10385,558;  210,770;19371,477;53,10236
 646,60;10445,079;  306,171;19543,725;52,70373
 647,18;10274,100;   35,071;19408,973;52,84959
 647,75;10573,221;   61,472;19928,221;52,91127
 648,33;10403,241;   -8,427;20006,469;52,01960
 648,91;10206,962;  -76,427;19520,717;52,47392
 649,48;10314,783;  -12,226;19776,965;52,18510
 650,06;10595,704;   41,974;19777,213;53,47658
 650,63;10578,624;    1,075;19507,461;54,22608
 651,21;10909,545;  135,976;20248,711;53,56591
 651,79;11216,566;  229,676;20341,959;54,62776
 652,36;11205,287;  146,777;20478,207;54,39121
 652,94;10915,607;   57,078;21084,455;51,63996
 653,51;10809,229;   16,378;21001,703;51,43047
 654,09;11063,350;  131,079;21131,951;52,05627
 654,66;11109,470;   83,579;20753,199;53,34346
 655,24;11045,291;   59,280;20691,447;53,24700
 655,81;11367,712;  195,781;21340,695;52,83507
 656,39;11570,433;   44,481;21402,943;53,96433
 656,96;11664,053;    9,282;21346,191;54,62258
 657,54;11980,074;  269,782;21567,439;54,98394
 658,11;11780,595;  122,083;21334,688;54,96030
 658,69;11772,016;  126,284;21492,938;54,50424
 659,27;11826,637;  140,584;21736,186;54,11311
 659,84;12025,357;  225,285;21812,434;54,66249
 660,42;11903,578;  -22,814;21484,682;55,45226
 660,99;11916,898;  -69,714;21570,930;55,38935
 661,57;12200,220;  132,987;21364,178;56,83729
 662,14;12376,540;  203,387;21877,426;56,16467
 662,72;12301,661;  -67,112;21895,674;56,31696
 663,29;12586,082;  -11,411;22203,922;56,70630
 663,87;12728,003;  -72,511;22203,170;57,46407
 664,44;13149,724;  218,390;22710,418;57,49296
 665,01;13185,145;   83,990;22712,666;57,89625
 665,59;13251,165;   25,991;22601,914;58,58088
 666,16;13200,786;  -28,208;22176,162;59,57834
 666,74;13315,807;  -20,808;22542,412;59,10776
 667,31;13632,627;  -39,407;23111,660;59,05574
 667,89;13720,648;   43,193;23824,908;57,51248
 668,46;14107,569;  239,794;23992,156;58,38483
 669,04;14375,189;  185,595;24339,404;58,74682
 669,61;14460,011;   17,095;24094,652;59,98497
 670,19;14584,831;  -28,304;24326,900;60,00005
 670,76;14748,452;  -56,303;24304,148;60,77373
 671,33;14952,873;  -37,303;24423,396;61,28270
 671,91;15500,094;  264,698;24973,645;61,65943
 672,48;15186,314;   10,698;25444,893;59,66620
 673,06;15494,936;  141,599;25687,141;60,10182
 673,63;15537,656;    6,000;25072,389;61,96208
 674,21;15509,077; -106,200;25269,639;61,53600
 674,78;15781,798;   87,301;25718,887;61,23108
 675,35;15672,618;   71,101;25395,135;61,60755
 675,93;16098,939;  255,502;25968,383;61,61673
 676,50;15946,960;    8,203;25704,631;62,02713
 677,08;16106,381;  -30,797;26029,879;61,92156
 677,65;16111,002;  -49,296;25772,127;62,58485
 678,22;16668,521;   24,205;26322,375;63,29078
 678,80;16884,443;  -75,695;26265,623;64,38607
 679,37;17401,064;  -37,494;27253,871;63,89771
 679,94;17470,686;  -30,294;27220,119;64,22280
 680,52;18115,105;  113,707;28065,367;64,40189
 681,09;18610,826;  111,508;27892,615;66,58956
 681,67;19153,047;  191,308;28668,863;66,58485
 682,24;19567,668;  102,209;28825,113;67,76981
 682,81;19964,988;  -39,391;28976,361;68,94317
 683,39;20553,609;  -58,790;28946,609;71,06401
 683,96;21068,830;    5,911;28830,857;73,07184
 684,53;21567,051;  123,111;29409,105;73,22251
 685,11;21987,473;   91,512;29579,354;74,25420
 685,68;22310,092;   38,212;29606,602;75,32328
 686,25;22562,814;  -26,387;29685,850;76,02659
 686,83;22953,635;   42,414;29648,098;77,38791
 687,40;23373,955;   67,214;30069,346;77,68362
 687,97;23854,477;   58,215;30402,594;78,42066
 688,55;24323,197;  -52,184;30422,842;79,98478
 689,12;24950,318;   20,416;30470,090;81,87248
 689,69;25469,338;  196,017;30947,340;82,18613
 690,27;25903,059;  -33,483;31210,588;83,01268
 690,84;26446,980;  -87,282;31292,836;84,55756
 691,41;26971,102;  138,219;31725,084;84,94950
 691,98;26795,121;  182,919;31755,332;84,28941
 692,56;26998,043;   79,020;31543,580;85,55347
 693,13;27302,363;  -94,080;31279,828;87,32238
 693,70;27914,684;   89,921;31193,076;89,45961
 694,28;28324,904;   20,122;31195,324;90,79262
 694,85;28324,525;  -42,178;31334,572;90,40676
 695,42;28582,945;   -8,977;32192,820;88,78983
 695,99;28798,967;  100,424;32395,068;88,86471
 696,57;28841,188;  -11,376;32583,316;88,51921
 697,14;28968,508;   28,825;32816,566;88,26373
 697,71;29126,930;    0,025;32560,814;89,45393
 698,28;29418,949;   81,026;32604,063;90,20659
 698,86;29644,471;  348,627;33389,309;88,66598
 699,43;29386,291;   79,827;33773,559;86,97898
 700,00;29189,213;   -9,872;34107,805;85,58345
 700,57;28972,232;  -87,672;33970,055;85,32544
 701,15;29365,154;  101,329;33912,305;86,55126
 701,72;28916,574;  -77,870;33906,551;85,31687
 702,29;29289,295;  123,530;34850,801;83,98519
 702,86;29232,117; -112,369;34806,047;84,03728
 703,43;29944,738;  152,831;34973,297;85,55861
 704,01;29891,857;  -45,068;34788,543;85,94264
 704,58;30026,379; -127,867;34907,793;86,06730
 705,15;30367,400;   91,233;35582,039;85,30707
 705,72;29792,820; -111,966;35482,289;84,01577
 706,29;29770,541;   -0,065;35495,535;83,87126
 706,87;30157,861;   20,235;36105,785;83,51716
 707,44;30839,982;   29,836;36555,031;84,35313
 708,01;31079,703;   16,236;36552,281;85,02143
 708,58;31382,525; -110,963;36876,531;85,14632
 709,15;31641,545; -103,062;36797,777;86,02679
 709,72;31588,666;  196,138;36951,027;85,41048
 710,30;31267,486;  104,739;36949,273;84,57902
 710,87;30711,707; -131,061;36374,523;84,48781
 711,44;30855,129;  -57,060;35958,770;85,82945
 712,01;31041,949;  -71,659;35827,020;86,67062
 712,58;31544,070; -104,759;36176,266;87,23246
 713,15;32124,990;   34,442;36555,516;87,86858
 713,73;32398,912;   25,243;36661,762;88,36448
 714,30;32883,434;   84,743;37510,012;87,63782
 714,87;33349,152;   80,144;38364,258;86,90030
 715,44;33564,875;  -36,156;38297,508;87,65411
 716,01;33592,293;   85,645;38654,758;86,87430
 716,58;33697,914;   43,746;38514,004;87,48100
 717,15;34392,836;  339,246;39388,254;87,20731
 717,72;34252,457;  -15,853;39369,500;87,00775
 718,30;34265,777;  -85,753;39748,750;86,23562
 718,87;33731,199;   24,148;38780,996;86,97057
 719,44;34088,320;    9,149;38881,246;87,67001
 720,01;34329,039;   33,149;39106,492;87,77311
 720,58;35102,461;  165,450;39486,742;88,85011
 721,15;35158,383;  -90,049;39428,988;89,19355
 721,72;35189,703;   13,251;39105,238;89,98379
 722,29;35163,125;   64,452;39273,484;89,51680
 722,86;35428,344;   35,852;39195,734;90,37946
 723,43;35958,566;  126,153;39863,980;90,17205
 724,00;35887,285;   82,954;39741,230;90,28212
 724,57;35690,508;  101,754;39735,480;89,79411
 725,14;35713,828;   28,655;39825,727;89,66784
 725,72;36190,547;   36,055;40456,977;89,44500
 726,29;36478,867;   48,056;40207,223;90,71605
 726,86;36612,488;  218,857;40264,473;90,88044
 727,43;36645,313;  133,857;40433,719;90,59946
 728,00;36972,133;   21,358;40716,969;90,79794
 728,57;37587,254;  141,458;41142,215;91,32952
 729,14;37721,574;  -60,041;41339,465;91,26103
 729,71;37811,395;   64,360;41500,711;91,09643
 730,28;37598,016;  126,260;41940,961;89,61383
 730,85;37265,336;  125,261;41889,207;88,92856
 731,42;36834,855;  -47,138;41599,457;88,55945
 731,99;37332,176;  -49,238;41746,707;89,43790
 732,56;38038,797;  231,863;41822,953;90,90152
 733,13;38025,020;   27,063;41415,203;91,80880
 733,70;38345,840;   71,964;41521,449;92,33860
 734,27;38704,059;   -8,135;42106,699;91,92057
 734,84;38543,883; -142,835;41894,945;92,02845
 735,41;39299,801;  159,866;42035,195;93,46777
 735,98;39385,324;    1,866;41995,441;93,78448
 736,55;39251,043; -118,533;41968,691;93,54282
 737,12;39235,063;  -75,332;42484,938;92,36406
 737,69;38924,387;   18,468;42603,188;91,36122
 738,26;38520,805;  -44,731;42671,434;90,28324
 738,83;38710,328;    2,070;43059,684;89,89875
 739,40;38862,047;   27,370;43844,934;88,62811
 739,97;38511,566;    4,371;43907,180;87,71010
 740,53;38496,891;   91,871;44084,430;87,29890
 741,10;38468,008;  112,572;43538,676;88,32346
 741,67;38542,129;   12,473;43528,926;88,54043
 742,24;38818,152;   30,773;43577,172;89,07138
 742,81;38653,473; -114,226;43458,422;88,97256
 743,38;39098,293;  254,074;43447,668;89,93051
 743,95;39207,215;   67,275;43514,918;90,08530
 744,52;40059,734;  150,276;44166,164;90,67057
 745,09;40134,855;  -61,424;43910,414;91,41369
 745,66;40151,375;  158,177;43856,660;91,52079
 746,23;39679,695;   82,577;43423,910;91,36110
 746,80;39457,918;  213,378;43491,160;90,68057
 747,36;39345,539;  126,479;43455,406;90,51473
 747,93;39318,059;  -24,121;43125,656;91,17586
 748,50;39682,578;  -77,220;43278,902;91,70515
 749,07;39793,102;   42,681;43620,152;91,21782
 749,64;39646,621;  -49,019;43844,398;90,43643
 750,21;40269,641;  188,582;44194,648;91,08076
 750,78;40412,363;  -51,818;44069,895;91,71036
 751,35;40640,883;  116,783;44050,145;92,23993
 751,92;40222,305;  -31,516;43703,391;92,04049
 752,48;39638,227; -129,716;43701,641;90,72944
 753,05;39439,047;  -20,015;44076,887;89,48262
 753,62;39702,266;  163,185;44902,137;88,37731
 754,19;39666,488;  176,486;45078,387;87,94728
 754,76;39478,207;  166,687;44929,633;87,82157
 755,33;39419,031; -134,613;43806,883;90,01433
 755,89;40382,551;  187,988;45260,129;89,17829
 756,46;40497,871;    5,889;44245,379;91,52904
 757,03;40912,293;   50,089;44433,625;92,06613
 757,60;40579,211;  -62,110;43520,875;93,25043
 758,17;40632,434;   64,290;43744,121;92,87615
 758,74;40392,652;  136,091;44678,371;90,37831
 759,30;40051,977; -100,608;44983,617;89,06127
 759,87;39907,098;   41,692;44565,867;89,53654
 760,44;39974,316;  204,093;44581,113;89,61896
 761,01;39467,637;   22,393;43405,363;90,92334
 761,58;39909,758;  100,594;43152,609;92,46760
 762,14;40345,980;   24,695;43238,859;93,30572
 762,71;40087,301;  -10,005;43592,109;91,96184
 763,28;39962,320;   99,296;43784,355;91,25093
 763,85;39646,742;  -85,804;44600,605;88,91416
 764,41;39688,961;   31,497;44305,852;89,57209
 764,98;39810,383;   55,498;44681,102;89,08537
 765,55;39903,504; -108,602;43848,348;91,02567
 766,12;39819,125;   85,499;43924,598;90,63513
 766,69;39853,246;   24,600;43898,844;90,77911
 767,25;40099,766;  203,500;44055,094;90,98020
 767,82;39991,988;   52,801;43675,340;91,55631
 768,39;40019,906;  -27,299;43486,590;92,03316
 768,95;39625,727;  -41,198;43094,836;91,95775
 769,52;39380,348;   -0,697;43358,086;90,82599
 770,09;39558,770;  242,903;44048,336;89,75112
 770,66;40330,090;  417,204;45178,582;89,16813
 771,22;40145,910;  188,804;45112,832;88,94373
 771,79;40114,934;  226,705;45411,078;88,27881
 772,36;39623,453;  133,206;44956,328;88,10240
 772,93;39558,676;  -20,394;44671,574;88,55969
 773,49;39819,094;  127,407;44318,824;89,81764
 774,06;39644,914;   -1,892;44192,070;89,71091
 774,63;39028,336;    6,008;42993,320;90,77638
 775,19;38284,957;   -9,391;42576,566;89,92248
 775,76;37565,277;  -28,891;42033,816;89,37648
 776,33;36944,699;  -89,690;42088,063;87,80551
 776,89;37162,621;   80,911;42382,313;87,66071
 777,46;37120,039;   19,811;42423,563;87,49280
 778,03;37002,359;   56,012;42300,809;87,45775
 778,59;36748,582; -145,188;41294,059;89,03099
 779,16;37157,102;  -41,087;41515,305;89,51256
 779,73;37265,125;   41,114;41970,555;88,77774
 780,29;37132,145;   35,914;42158,801;88,06669
 780,86;36881,363;  -15,485;42096,051;87,61696
 781,43;36865,484;  154,316;41628,297;88,51614
 781,99;36728,105;  -61,084;40743,547;90,15935
 782,56;37456,027;   45,217;41348,793;90,57523
 783,13;37964,348;   42,017;41323,043;91,86383
 783,69;37848,570;  -56,482;40720,289;92,95746
 784,26;37312,590;  -73,381;40440,539;92,27932
 784,82;37297,609;   15,019;40371,789;92,38249
 785,39;37375,031; -142,780;40693,035;91,87477
 785,96;37592,254;  -29,880;41526,285;90,53322
 786,52;37623,574;   20,521;41396,531;90,88129
 787,09;37204,395;   18,422;40772,781;91,24416
 787,65;36681,414;  -87,978;40247,027;91,16000
 788,22;36106,336;   39,823;40593,277;88,93574
 788,79;35975,156;   73,923;40966,523;87,79396
 789,35;35711,477;  -43,276;40717,773;87,71794
 789,92;35608,199;  -55,875;40156,020;88,69036
 790,48;35665,719;  -17,075;39761,270;89,70407
 791,05;35749,641;   33,326;39726,516;89,98096
 791,62;35841,762;  140,727;40084,766;89,37763
 792,18;35687,883;   25,527;39869,016;89,50611
 792,75;35589,102;  -74,472;39630,262;89,82197
 793,31;35687,422;  -56,572;39538,512;90,27382
 793,88;35828,941;  175,829;39251,758;91,24060
 794,44;34999,563;  -11,170;38703,008;90,43388
 795,01;34819,086;   59,330;39271,254;88,64588
 795,57;34673,305;  -22,669;39049,504;88,79970
 796,14;35199,328;   93,431;38915,750;90,42710
 796,70;34748,848; -109,568;37537,000;92,59387
 797,27;34474,367;  113,633;37308,246;92,38094
 797,83;33895,391;  -12,467;37204,496;91,10861
 798,40;34008,008;   18,934;37269,742;91,24386
 798,97;33885,332;  -12,465;37644,992;90,01616
 799,53;33970,750;  -74,365;37784,242;89,92701
 800,10;34026,773; -102,664;37977,488;89,62527
 800,66;34018,191;   36,736;38301,738;88,80558
 801,23;34395,414;   28,737;38292,984;89,81407
 801,79;35267,934;  478,538;38872,234;90,61226
 802,35;34923,555;   58,338;38528,480;90,62929
 802,92;34903,676;    5,039;38104,730;91,59821
 803,48;34280,496;   21,639;37782,977;90,72469
 804,05;33879,918;   88,440;37011,227;91,51931
 804,61;33779,137;  175,441;37202,473;90,75450
 805,18;33366,461;   19,641;37680,723;88,54451
 805,74;33409,879;  153,142;38514,969;86,69227
 806,31;32952,500;   14,142;38114,219;86,45221
 806,87;33527,922;  410,543;38528,469;86,88138
 807,44;33026,141; -110,056;37300,715;88,57395
 808,00;33906,664;  156,944;37527,965;90,30987
 808,57;34298,082;   85,445;37401,211;91,68413
 809,13;35254,906;  675,746;37962,461;92,73855
 809,69;34110,625;   90,746;36095,707;94,48664
 810,26;33972,848;  340,147;36381,957;93,31579
 810,82;33016,969; -128,453;35382,203;93,33937
 811,39;32830,590;  119,548;35738,453;91,83618
 811,95;33062,008;  313,349;36261,699;91,09920
 812,51;32634,830;  -37,151;35967,949;90,74265
 813,08;32021,150;   -4,550;35995,195;88,96091
 813,64;31764,971;    4,750;36063,445;88,07923
 814,21;32086,092;  349,251;36801,691;87,06369
 814,77;33034,512;  642,252;36709,941;89,80963
 815,33;32890,434;   50,752;35745,191;92,00223
 815,90;32534,354;    2,553;35142,438;92,57800
 816,46;31973,375;   50,954;34270,688;93,28659
 817,03;31518,096;   28,854;33805,934;93,22666
 817,59;31720,617;  237,255;34402,184;92,15111
 818,15;31554,838;  232,355;35384,430;89,10564
 818,72;31713,059;  125,356;35778,680;88,59680
 819,28;31141,779;   26,957;35082,926;88,75756
 819,84;31032,600;  264,857;35353,176;87,68657
 820,41;29974,121;  -49,342;34031,422;88,09504
 820,97;29598,342;  123,558;33982,672;87,05126
 821,53;29086,361;  -12,741;32607,920;89,20451
 822,10;29518,783;  181,060;32652,168;90,35024
 822,66;29691,404;   82,960;32299,416;91,90472
 823,22;29704,924;  -41,539;31892,664;93,14923
 823,79;30228,445;  510,661;32593,912;92,62710
 824,35;29445,266;   -0,338;31783,160;92,64431
 824,91;28998,787;  -44,237;31745,408;91,36001
 825,48;29011,707;  142,363;32032,656;90,52706
 826,04;28817,928;  151,864;31879,906;90,34930
 826,60;28368,250;   53,865;32376,154;87,60018
 827,17;28237,369;  103,465;32139,402;87,81983
 827,73;28142,291; -106,134;32054,650;87,83500
 828,29;28691,313;  -49,034;32029,898;89,59259
 828,85;29186,533;   45,367;32254,146;90,47585
 829,42;29553,354;  316,168;32194,395;91,71522
 829,98;28865,975;  175,768;31629,643;91,21358
 830,54;28186,795;  164,869;31667,891;88,94996
 831,11;27475,115;  -27,831;31519,139;87,18094
 831,67;27356,336;  -51,030;31767,387;86,13680
 832,23;27608,357;  -63,229;32379,635;85,29329
 832,79;27801,277;  -30,229;32143,883;86,50280
 833,36;27976,199;  149,672;31701,133;88,19410
 833,92;27535,020;  -30,527;31062,381;88,65542
 834,48;27761,141;   27,873;30924,629;89,76110
 835,04;27865,961;  -47,326;30932,877;90,10040
 835,60;28320,883;  115,274;31065,125;91,13326
 836,17;28374,002;   61,675;30796,373;92,11845
 836,73;27909,023;  -83,224;30412,621;91,79036
 837,29;27529,045;  -57,824;30093,869;91,49360
 837,85;27489,266;  137,377;30016,117;91,54298
 838,42;27143,486; -125,123;29550,365;91,88934
 838,98;27334,707; -127,022;29752,613;91,90785
 839,54;27446,928;  -95,621;30132,861;91,11456
 840,10;27509,648;  105,879;30857,109;89,11438
 840,66;26869,369;   62,380;30442,359;88,23900
 841,23;26693,490;   51,980;30473,607;87,57424
 841,79;26643,010;   85,981;30524,855;87,24708
 842,35;26869,832;  208,082;30403,104;88,29850
 842,91;26753,053;   -3,618;30033,352;89,07913
 843,47;26991,373;    7,483;30368,600;88,87647
 844,03;26666,994;  -87,716;29967,848;89,01750
 844,60;26523,615;  -86,816;30058,096;88,27503
 845,16;26296,635; -146,515;29729,344;88,51009
 845,72;26455,957;  -48,015;30142,592;87,78880
 846,28;26510,576;  -60,614;29939,840;88,56929
 846,84;26416,398;  -45,813;29914,088;88,32543
 847,40;26370,918;   73,087;29803,336;88,45480
 847,96;25915,439;  -18,712;28748,584;90,15151
 848,53;25836,461;  -46,712;28829,834;89,63389
 849,09;25720,281;  -67,411;28578,082;90,02356
 849,65;25747,602;   82,990;29115,330;88,40008
 850,21;25660,322;   -8,810;29040,578;88,36376
 850,77;25589,543;    5,591;29002,826;88,22894
 851,33;25791,564;   77,292;29050,074;88,75320
 851,89;26148,186;  413,092;29332,322;88,98955
 852,45;25933,906;  -71,107;28618,570;90,64240
 853,01;25986,627;   27,893;28689,818;90,56870
 853,57;26012,348;   16,494;29209,066;89,04955
 854,14;25729,768; -148,005;29172,314;88,25884
 854,70;25544,689;  -49,605;29325,563;87,12902
 855,26;25149,811;    1,096;29008,811;86,69664
 855,82;24709,430;  -60,004;28571,061;86,51244
 856,38;24544,650;   29,297;28634,309;85,70300
 856,94;24558,072;   79,898;28334,557;86,63412
 857,50;24659,594;   19,098;28582,805;86,26505
 858,06;24704,713; -120,201;28321,053;87,28488
 858,62;24655,535;  -32,500;28314,301;87,09284
 859,18;24662,955;   78,600;28611,549;86,16128
 859,74;24424,176;   15,001;28555,797;85,52381
 860,30;24415,297;   18,401;28404,045;85,94801
 860,86;24379,918;  -58,198;27871,293;87,49932
 861,42;24704,438; -123,797;27994,541;88,29908
 861,98;25006,059;   51,403;28250,789;88,49361
 862,54;24625,381; -115,196;27867,037;88,41531
 863,10;24803,801;   83,504;28241,285;87,79206
 863,66;24678,121;  -62,195;28351,535;87,07169
 864,22;24980,443;   84,206;28430,783;87,82802
 864,78;25012,164;  -16,594;28347,031;88,24245
 865,34;24850,484;  -50,093;27741,279;89,59823
 865,90;24848,004;   15,107;27362,527;90,80526
 866,46;24836,125;   29,208;27343,775;90,81937
 867,02;25387,547;  420,809;27576,023;91,94086
 867,58;24771,367;  -59,691;26938,271;91,97382
 868,14;25425,188;  263,910;27313,520;93,01900
 868,70;25418,109;  126,811;27435,768;92,61173
 869,26;25427,029;   97,711;27823,016;91,35812
 869,82;25091,551;  -85,788;27733,264;90,50394
 870,38;24548,672; -129,988;27582,512;89,05245
 870,94;24683,691;  222,913;27939,762;88,25238
 871,50;24023,213; -107,586;27201,010;88,36338
 872,06;24144,734; -106,086;27559,258;87,65776
 872,62;23953,254;  -94,985;27480,506;87,20874
 873,18;23908,676;  -83,685;27688,754;86,38910
 873,74;24060,396;  171,716;27624,002;87,01891
 874,29;23766,717;   92,117;27800,250;85,44278
 874,85;23337,617;  -81,683;27359,250;85,34440
 875,41;23321,518;  -29,783;27084,250;86,12256
 875,97;23326,217;   16,517;27130,250;85,97009
 876,53;23557,617;   89,717;27101,250;86,88104
 877,09;23741,518;   53,017;27051,250;87,74093
 877,65;24012,117;  234,417;27319,250;87,78972
 878,21;23776,316;  -11,183;26783,250;88,77777
 878,77;23864,117;   31,517;26110,250;91,38711
 879,33;23698,617;   48,417;26320,250;90,02113
 879,88;23774,316;  -43,483;25989,250;91,49174
 880,44;23805,816;   -3,783;25801,250;92,26727
 881,00;23688,316;  -56,083;25747,250;92,02067
 881,56;23408,018;   -3,483;25926,250;90,28824
 882,12;23281,518;  241,817;25597,250;90,86692
 882,68;22845,117;   17,717;25400,250;89,93350
 883,24;22980,416;  105,517;25354,250;90,59821
 883,79;23326,416;  259,717;25523,250;91,30433
 884,35;23511,217;  161,617;25906,250;90,69696
 884,91;23327,717; -128,583;25974,250;89,86113
 885,47;23585,217;  103,817;26485,250;89,00729
 886,03;23176,416;  108,717;26058,250;88,89447
 886,59;22708,018;  -55,783;25711,250;88,34467
 887,14;22661,117;  155,917;25716,250;88,04737
 887,70;22235,518; -155,183;24942,250;89,21510
 888,26;23136,518;  185,517;25692,250;89,98017
 888,82;23328,217;   42,517;25492,250;91,49683
 889,38;23687,816;  164,117;25869,250;91,51363
 889,93;23548,916;   44,217;26107,250;90,18405
 890,49;23562,518; -131,583;26188,250;90,02375
 891,05;23769,617;  -72,183;26363,250;90,18880
 891,61;24289,916;   40,117;26369,250;92,10254
 892,17;24827,018;   81,817;27236,250;91,12766
 892,72;24766,518;  -98,983;27393,250;90,44555
 893,28;25183,916;   26,617;27845,250;90,43327
 893,84;25054,316;  -99,883;27941,250;89,70465
 894,40;25500,316;   98,717;28310,250;90,03977
 894,95;25505,018; -118,283;28445,250;89,70634
 895,51;25748,617;   -0,083;28690,250;89,74695
 896,07;25896,117;  -43,783;28784,250;89,98151
 896,63;25706,117;  -80,583;28432,250;90,43893
 897,18;25912,316;   56,017;28682,250;90,32379
 897,74;25751,816;   -6,583;28540,250;90,23207
 898,30;25201,617; -105,383;28202,250;89,39992
 898,85;25223,316;   48,317;28647,250;88,02776
 899,41;25141,518;  140,817;29007,250;86,60821
 899,97;24847,518; -108,783;29050,250;85,58686
 900,53;24725,316;   55,617;28893,250;85,54689
 901,08;24857,717;  -97,883;28754,250;86,49482
 901,64;25082,117;   97,617;28341,250;88,46065
 902,20;24847,416;  -14,583;27849,250;89,22677
 902,75;24528,717;   17,617;27154,250;90,32476
 903,31;24413,018;  -20,383;27096,250;90,10485
 903,87;24488,816;  -46,583;27068,250;90,48700
 904,42;24806,316;  107,717;27978,250;88,61904
 904,98;24660,117;   45,917;28116,250;87,68760
 905,54;24637,617;   34,817;27966,250;88,08284
 906,09;24603,916;   -1,783;27751,250;88,65950
 906,65;24361,816; -110,183;27377,250;89,02977
 907,21;24754,117;   64,017;27398,250;90,32666
 907,76;24946,518;  -44,683;26965,250;92,52596
 908,32;25122,217;  -19,383;27120,250;92,63795
 908,88;25056,916;  -39,183;26943,250;93,00903
 909,43;25155,916;  164,017;27198,250;92,44538
 909,99;24379,117;   42,117;26674,250;91,38209
 910,54;23539,316;   23,317;26212,250;89,79365
 911,10;23189,416;  225,017;26575,250;87,15065
 911,66;22835,316;  361,517;26493,250;86,00195
 912,21;22369,916;   55,317;26146,250;85,52626
 912,77;22125,816;  -49,983;25912,250;85,41561
 913,33;22604,217;  199,417;26059,250;86,63938
 913,88;22398,217;   59,317;25589,250;87,50082
 914,44;22237,518; -101,683;25406,250;87,57746
 914,99;22149,816;  -63,383;25310,250;87,54442
 915,55;22081,518;   65,717;25431,250;86,79416
 916,10;21896,217;   61,317;25895,250;84,52023
 916,66;21672,617;   75,417;25690,250;84,31521
 917,22;21226,316;  -62,983;25330,250;83,83848
 917,77;21102,617; -146,883;25060,250;84,29955
 918,33;21202,018;  176,017;25183,250;84,07968
 918,88;20838,717;   76,417;24675,250;84,40360
 919,44;20505,316;  -22,083;24374,250;84,14133
 919,99;20698,217;   67,417;24080,250;85,91573
 920,55;20860,816;  182,917;24591,250;84,71656
 921,10;20825,816;  -11,483;24567,250;84,77776
 921,66;20837,416;   64,617;24529,250;84,90951
 922,21;20753,518;  -13,783;24488,250;84,75746
 922,77;20630,816;   72,417;24253,250;85,01940
 923,32;20893,717;  360,917;24287,250;85,81674
 923,88;20615,617;  166,717;24069,250;85,55119
 924,43;20498,816;   60,917;23992,250;85,40226
 924,99;20414,617;   69,317;24057,250;84,81473
 925,54;20292,316;  -38,983;23928,250;84,82956
 926,10;19973,316;  -97,283;24213,250;82,55927
 926,65;19804,916;  158,617;24152,250;81,88130
 927,21;19724,217;  175,917;23959,250;82,19327
 927,76;19311,916;   65,717;23084,250;83,61175
 928,32;19213,316; -148,683;22343,250;86,08419
 928,87;19620,416;   28,317;21814,250;89,93004
 929,43;19822,217;    6,417;21723,250;91,24627
 929,98;19660,617;  -54,683;21489,250;91,51208
 930,54;19712,816;  -47,883;21687,250;90,91594
 931,09;19504,816;  -72,883;21319,250;91,51822
 931,65;19426,916;  -11,683;21300,250;91,20993
 932,20;19218,617;   75,517;21149,250;90,83868
 932,76;18855,916;   45,617;20978,250;89,86112
 933,31;18657,117;  123,917;20967,250;88,91668
 933,86;18200,816;   11,717;21143,250;86,07563
 934,42;17722,717;  -61,783;20981,250;84,51491
 934,97;17378,416;  -68,983;20300,250;85,65565
 935,53;17017,518;    6,017;20088,250;84,70921
 936,08;16604,117;  -30,983;19235,250;86,34329
 936,63;16118,616;  -42,783;18323,250;87,99614
 937,19;15991,517;  172,717;18216,250;87,67019
 937,74;15344,717;   28,417;17019,250;90,14449
 938,30;14886,116;   79,117;16703,250;89,06930
 938,85;14236,917;  -56,983;15823,250;90,01064
 939,40;14033,116;  176,017;15605,250;89,81068
 939,96;13416,616;   71,917;14535,250;92,26573
 940,51;12694,217;    1,217;13685,250;92,75774
 941,06;12447,217;  133,317;13619,250;91,30922
 941,62;11926,517;   74,017;13061,250;91,26270
 942,17;11617,517;  132,317;12932,250;89,72859
 942,73;11710,816;  365,717;13015,250;89,68789
 943,28;11109,816; -101,383;12490,250;89,03690
 943,83;11094,917;   44,517;12603,250;87,98977
 944,39;10958,217;  -36,683;12256,250;89,44082
 944,94;10980,517;   44,017;12155,250;90,30046
 945,49;11430,217;  429,717;12477,250;91,30915
 946,05;10732,816; -121,483;11780,250;91,19932
 946,60;10943,616;  108,317;11933,250;91,63096
 947,15;10695,116;  -98,183;11881,250;90,09858
 947,70;10875,717;   13,217;12149,250;89,50618
 948,26;10796,017;  -12,683;12116,250;89,11501
 948,81;10697,017;  -67,683;12185,250;87,85406
 949,36;10747,616;  -63,383;12442,250;86,44904
 949,92;10976,816;  116,517;13110,250;83,58106
 950,47;11111,917;   55,017;13390,250;82,91494
 951,02;11274,217;   16,617;13737,250;82,04869
 951,57;11701,616;  210,317;14176,250;82,28093
 952,13;11942,116;  211,717;14322,250;83,13222
 952,68;12167,316;   97,717;14120,250;86,07289
 953,23;12743,116;  325,817;14460,250;87,85141
 953,79;12606,717;  109,417;14128,250;89,14651
 954,34;12579,316;   20,617;13943,250;90,20348
 954,89;12480,417;  -56,083;13858,250;90,09774
 955,44;12607,316;   -5,683;13949,250;90,38381
 955,99;12773,816;   75,517;14489,250;88,09862
 956,55;12921,217;   34,317;14429,250;89,52386
 957,10;12968,917;  -29,483;14643,250;88,58881
 957,65;13138,717;   10,117;14828,250;88,59820
 958,20;13249,616;   15,117;14810,250;89,45171
 958,76;13413,917;  152,417;15004,250;89,29201
 959,31;13403,717;   84,617;15202,250;88,10308
 959,86;13269,316; -110,983;15483,250;85,80287
 960,41;13535,217;  -66,083;15779,250;85,83789
 960,96;14534,116;  694,217;16822,250;85,81269
 961,52;13833,517;  -77,083;15765,250;87,80651
 962,07;14059,417;   88,117;16180,250;86,82068
 962,62;13930,917;   74,217;15901,250;87,55084
 963,17;13697,616;   28,917;15985,250;85,66316
 963,72;13456,217; -117,283;15592,250;86,40295
 964,27;13392,017;  105,817;15818,250;84,55851
 964,83;13011,316; -129,383;15507,250;84,03791
 965,38;13009,116;  -47,383;15706,250;82,87929
 965,93;13226,217;   43,417;16068,250;82,26482
 966,48;13311,417;   18,417;16081,250;82,75626
 967,03;13467,717;  158,217;16024,250;83,88675
 967,58;13496,217;  138,217;16051,250;83,94377
 968,13;13377,116;   67,417;15580,250;85,79799
 968,69;13882,417;  447,917;15953,250;86,64438
 969,24;13391,217;  -49,083;15348,250;87,28979
 969,79;13412,116;  -97,283;15399,250;87,17691
 970,34;13663,616;  -26,883;15405,250;88,71424
 970,89;13762,816;   92,817;15865,250;86,67020
 971,44;13622,816;   -8,783;15588,250;87,39867
 971,99;13697,517;  250,417;15667,250;87,22349
 972,54;13258,116;   53,817;15149,250;87,47215
 973,09;12786,217; -108,683;14754,250;86,75878
 973,64;12784,017;  -42,183;14504,250;88,17419
 974,20;12817,217;   85,717;14657,250;87,37241
 974,75;13345,816;  292,117;15221,250;87,43776
 975,30;13131,116;   40,717;15114,250;86,84360
 975,85;14504,217; 1104,317;16738,250;85,71036
 976,40;13233,116;   44,917;15253,250;86,71693
 976,95;13171,316;  -51,383;15280,250;86,24456
 977,50;13022,116;  150,417;14808,250;87,81448
 978,05;12881,816;  101,317;14372,250;89,55616
 978,60;12410,517; -117,683;13672,250;90,85033
 979,15;12785,417;  285,717;14036,250;90,90339
 979,70;12224,616;  -72,683;13397,250;91,29444
 980,25;12139,316;  -57,883;13563,250;89,54614
 980,80;12055,517;  -50,783;13579,250;88,82077
 981,35;12106,017;  -20,183;13809,250;87,68400
 981,90;12173,217;    8,017;13989,250;87,01092
 982,45;12535,417;  245,117;14086,250;88,79548
 983,00;12592,417;  231,817;14151,250;88,80103
 983,55;12289,917;   73,617;13969,250;87,91467
 984,10;12162,917;    5,417;13864,250;87,72384
 984,65;12223,717;   38,517;13714,250;89,10089
 985,20;12182,417;  151,617;14020,250;86,74828
 985,75;12154,517;  167,717;13877,250;87,43405
 986,30;11851,717;   15,817;13490,250;87,83969
 986,85;11872,816;   62,717;13613,250;87,15598
 987,40;11857,316;  179,417;13708,250;86,31860
 987,95;11667,816;  -19,483;13469,250;86,64490
 988,50;11658,116;   68,517;13298,250;87,60267
 989,05;11965,417;  203,017;13352,250;89,45313
 989,60;11815,717;  105,217;13088,250;90,19849
 990,15;11798,116;  142,317;13083,250;90,06923
 990,70;11880,816;  227,617;13222,250;89,67702
 991,25;11402,517;   53,217;12742,250;89,44180
 991,79;11116,816;  -44,683;12627,250;88,08048
 992,34;11206,017;  206,917;12789,250;87,41701
 992,89;11460,917;  720,017;13305,250;85,34526
 993,44;10430,417;   40,017;12354,250;84,37716
 993,99;10200,116;  -33,783;12248,250;83,32415
 994,54;10202,517;   52,817;12295,250;82,90590
 995,09;10208,616;   11,117;12480,250;81,78194
 995,64;10406,717;  186,317;12702,250;81,65911
 996,19;10166,917;  -60,183;12324,250;82,58028
 996,74;10499,917;  208,017;12647,250;82,73742
 997,28;10146,917;    6,917;12075,250;84,02155
 997,83; 9889,816;  -90,583;11655,250;84,96970
 998,38; 9790,217;  -42,583;11822,250;82,87348
 998,93; 9756,816;   -7,583;11471,250;85,06439
 999,48; 9713,017;   -3,983;11775,250;82,49263
1000,03;10188,517;  383,017;11877,250;85,30799
1000,58; 9729,316;   -8,683;11469,250;84,84106
1001,12; 9854,316;  176,717;11570,250;84,93941
1001,67; 9524,517;   41,817;10935,250;87,04969
1002,22; 9666,417;  186,717;11159,250;86,39482
1002,77; 9563,017;  212,117;11140,250;85,56722
1003,32; 9215,816;    3,717;10700,250;86,12229
1003,86; 9270,917;  259,117;10770,250;85,73576
1004,41; 9083,417;   77,217;10801,250;83,98147
1004,96; 8891,217;   -9,883;10277,250;86,52654
1005,51; 8834,017;   39,617;10019,250;88,12348
1006,06; 8922,316;  348,017;10151,250;87,46400
1006,60; 8285,816;  -14,683; 9540,250;86,87135
1007,15; 8262,017;  220,817; 9504,250;86,61881
1007,70; 8031,017;  150,617; 9336,250;85,79049
1008,25; 7697,617;   52,917; 8849,250;86,90780
1008,80; 7474,517;  -89,983; 8669,250;86,36030
1009,34; 7800,817;  203,117; 9087,250;85,51988
1009,89; 7790,117;  113,917; 8941,250;86,95944
1010,44; 7770,117;   17,117; 8931,250;86,97424
1010,99; 7874,917;   59,617; 8962,250;87,78638
1011,53; 7776,017;  -69,283; 8870,250;87,75961
1012,08; 7829,317;  -74,283; 8873,250;88,33273
1012,63; 8149,317;   51,217; 9212,250;88,39724
1013,18; 8314,116;   34,017; 9603,250;86,52835
1013,72; 8678,616;   78,517;10012,250;86,57470
1014,27; 8886,517;  -24,883;10320,250;86,14099
1014,82; 9318,717;  174,517;10680,250;87,04009
1015,36; 9348,116;   27,617;10741,250;86,99663
1015,91; 9327,717;   17,317;10459,250;89,16357
1016,46; 9289,017;   39,217;10531,250;88,16022
1017,01; 9107,017;    1,117;10383,250;87,70741
1017,55; 8796,917;  -75,583;10099,250;87,20045
1018,10; 8767,917;   48,717;10072,250;86,98729
1018,65; 8471,816;   70,517; 9831,250;86,07242
1019,19; 8384,616;  123,517; 9869,250;84,76632
1019,74; 8322,517;  126,317; 9617,250;86,35821
1020,29; 8358,217;  108,717; 9531,250;87,55077
1020,83; 8224,517;   79,117; 9431,250;87,09670
1021,38; 8269,417;  145,417; 9293,250;88,80792
1021,93; 7936,917;   27,917; 8858,250;89,56627
1022,47; 7876,017;   39,017; 8904,250;88,40151
1023,02; 7510,517;  -78,583; 8379,250;89,72865
1023,56; 7721,117;  201,717; 8705,250;88,42677
1024,11; 7236,817;  -54,683; 8032,250;90,16397
1024,66; 7408,817;  104,717; 8132,250;90,98810
1025,20; 7145,517;  -81,983; 7647,250;93,50863
1025,75; 7206,517;   42,317; 7851,250;91,74364
1026,30; 7260,217;   76,017; 7822,250;92,74443
1026,84; 6977,017;  -63,383; 7613,250;91,71208
1027,39; 7014,717;  149,817; 7731,250;90,54884
1027,93; 6674,417;  -23,083; 7461,250;89,48693
1028,48; 6700,917;   83,017; 7601,250;88,02467
1029,03; 6695,717;  224,817; 7488,250;89,08872
1029,57; 6434,017;   29,417; 7158,250;89,84079
1030,12; 6350,717;    8,817; 7269,250;87,34878
1030,66; 6381,817;   72,117; 7090,250;89,90568
1031,21; 6333,117;   63,617; 7124,250;88,79515
1031,75; 6780,017;  455,117; 7391,250;91,18769
1032,30; 6251,417;  105,717; 7026,250;88,80385
1032,84; 6057,317;  130,517; 6896,250;87,60026
1033,39; 5810,717;   20,617; 6570,250;88,40342
1033,94; 5516,517;  -55,483; 6279,250;87,95950
1034,48; 5713,317;  208,417; 6293,250;90,46920
1035,03; 5592,517;  174,717; 6216,250;89,67591
1035,57; 5353,817;    9,117; 5989,250;89,37427
1036,12; 5253,217;  -82,383; 5918,250;88,91728
1036,66; 5512,517;   93,817; 6121,250;89,90062
1037,21; 5220,817;  -70,983; 5792,250;90,25396
1037,75; 5487,117;  309,717; 6109,250;89,27270
1038,30; 5174,617;  102,017; 5548,250;93,13960
1038,84; 4963,917;   12,717; 5484,250;90,49017
1039,39; 4720,617;  -71,583; 5258,250;89,91276
1039,93; 4847,217;  121,417; 5441,250;88,83361
1040,48; 4657,317;   79,717; 5238,250;88,73841
1041,02; 4690,817;  155,917; 5237,250;89,24627
1041,57; 4613,217;  118,817; 5209,250;88,29111
1042,11; 4747,017;  208,317; 5470,250;86,25537
1042,66; 4583,717;   42,217; 5196,250;88,11546
1043,20; 4414,317;  -92,683; 4920,250;89,90744
1043,74; 4516,317;   86,817; 5032,250;89,56748
1044,29; 4584,217;  203,917; 5054,250;90,30926
1044,83; 4295,417;   87,017; 4730,250;90,63511
1045,38; 4112,517;  -11,183; 4523,250;90,94190
1045,92; 3873,317;  -90,283; 4455,250;87,19769
1046,47; 3907,817;   -4,583; 4435,250;88,12042
1047,01; 3942,417;  124,417; 4648,250;84,39745
1047,55; 3797,917;   45,117; 4484,250;84,53903
1048,10; 3639,317;  -82,683; 4321,250;84,51536
1048,64; 3839,217;   72,217; 4347,250;88,11627
1049,19; 3801,417;   65,417; 4347,250;87,25235
1049,73; 3790,517;   60,617; 4169,250;90,78201
1050,27; 3658,717;    0,317; 4011,250;91,21069
1050,82; 3594,117;    9,617; 3886,250;92,46425
1051,36; 3472,717;   -3,383; 3809,250;91,17320
1051,91; 3521,617;  112,717; 3935,250;89,17908
1052,45; 3482,217;   89,717; 3704,250;93,85720
1052,99; 3283,817;  -13,583; 3569,250;92,03331
1053,54; 3355,217;   50,117; 3578,250;93,67843
1054,08; 3139,117;  -72,883; 3438,250;91,48043
1054,62; 3256,717;   72,817; 3575,250;90,90537
1055,17; 3265,717;  123,817; 3667,250;88,66824
1055,71; 3084,917;   62,217; 3416,250;90,12135
1056,25; 3724,517;  662,417; 4168,250;87,34300
1056,80; 3012,317;  155,417; 3420,250;87,50523
1057,34; 2687,817;  -69,883; 3073,250;87,73729
1057,88; 2722,717;    5,517; 3095,250;87,94286
1058,43; 2875,417;  135,717; 3259,250;87,71157
1058,97; 2733,517;   73,717; 3137,250;86,82132
1059,51; 2769,617;  137,317; 3181,250;86,47693
1060,06; 2882,317;  209,617; 3256,250;87,72634
1060,60; 2597,217;   25,317; 2969,250;87,36271
1061,14; 2569,117;   17,217; 3053,250;84,05376
1061,68; 2596,017;   78,617; 2906,250;89,02851
1062,23; 3030,117;  530,817; 3374,250;87,89726
1062,77; 2494,517;  113,917; 2891,250;85,71531
1063,31; 2445,017;  112,517; 2810,250;86,46147
1063,85; 2482,517;  182,917; 2818,250;87,26031
1064,40; 2242,317;   -3,983; 2684,250;83,56045
1064,94; 2235,717;   38,317; 2670,250;83,48995
1065,48; 2230,017;   75,917; 2575,250;86,18698
1066,02; 2326,917;  162,717; 2752,250;83,57491
1066,57; 2108,517;   19,117; 2384,250;88,34174
1067,11; 2089,317;   24,817; 2387,250;87,38871
1067,65; 2172,617;   89,017; 2444,250;88,46682
1068,19; 2136,617;   85,517; 2453,250;86,62716
1068,74; 2062,617;   19,117; 2361,250;87,24952
1069,28; 2500,717;  393,217; 2767,250;88,77297
1069,82; 2065,417;   78,617; 2285,250;90,03762
1070,36; 2024,517;   23,217; 2361,250;85,59758
1070,90; 2861,117;  797,117; 3174,250;86,82727
1071,45; 1953,317;   39,717; 2244,250;86,80295
1071,99; 2005,917;  109,017; 2301,250;86,52820
1072,53; 1946,517;   85,117; 2286,250;84,56553
1073,07; 1886,517;   70,217; 2198,250;85,35111
1073,61; 1808,917;   47,517; 2060,250;87,51283
1074,15; 1888,317;  115,617; 2173,250;86,15237
1074,70; 1869,417;  129,017; 2192,250;84,35304
1075,24; 1767,417;   86,817; 2030,250;86,47582
1075,78; 1682,617;   21,617; 1970,250;85,23923
1076,32; 1771,217;  131,417; 2069,250;84,62028
1076,86; 1689,317;   46,317; 1994,250;84,34580
1077,40; 1964,517;  269,317; 2267,250;84,84768
1077,94; 1849,417;  203,617; 2134,250;85,24664
1078,49; 1556,417;  -10,283; 1812,250;85,96276
1079,03; 1594,517;   25,217; 1830,250;86,94023
1079,57; 1699,917;  139,017; 1926,250;87,33610
1080,11; 1746,917;  204,117; 2035,250;84,25383
1080,65; 1786,117;  247,217; 2008,250;87,38620
1081,19; 2105,117;  495,317; 2373,250;85,72189
1081,73; 1537,417;   47,617; 1802,250;84,90663
1082,27; 1490,717;   21,017; 1746,250;85,18848
1082,81; 1404,017;  -45,983; 1603,250;87,91964
1083,35; 1503,717;   60,217; 1739,250;85,97209
1083,89; 1468,417;   81,117; 1634,250;89,32266
1084,44; 1798,817;  381,317; 1998,250;87,66595
1084,98; 1456,817;  107,817; 1648,250;87,57276
1085,52; 1318,617;   20,417; 1555,250;84,58248
1086,06; 1245,217;  -35,183; 1369,250;91,16844
1086,60; 1354,917;   55,917; 1536,250;87,75050
1087,14; 1241,517;  -24,983; 1428,250;87,15050
1087,68; 1379,517;  121,917; 1601,250;85,01127
1088,22; 1312,417;   58,717; 1499,250;87,03026
1088,76; 1530,117;  261,617; 1726,250;86,60871
1089,30; 1116,717;  -53,383; 1371,250;82,13342
1089,84; 1244,017;   73,717; 1421,250;86,84758
1090,38; 1487,117;  295,517; 1684,250;85,80481
1090,92; 1180,617;   68,617; 1403,250;83,31877
1091,46; 1257,917;  124,117; 1362,250;91,57333
1092,00; 1237,517;  127,517; 1405,250;86,87259
1092,54; 1116,417;    9,317; 1240,250;89,93988
1093,08; 1339,217;  191,817; 1509,250;87,09359
1093,62; 1161,117;   44,817; 1319,250;87,59187
1094,16; 1011,217;  -58,083; 1216,250;83,91054
1094,70; 1032,717;  -41,383; 1224,250;84,86660
1095,24; 1143,317;   51,717; 1287,250;88,35051
1095,78; 1115,717;   37,817; 1306,250;84,97885
1096,32; 1065,817;   15,217; 1251,250;84,99771
1096,86; 1106,917;   92,517; 1253,250;87,39302
1097,40; 1107,217;  117,417; 1215,250;90,15941
1097,93; 1357,017;  346,417; 1569,250;82,64414
1098,47; 1113,717;  130,417; 1306,250;83,62580
1099,01; 1111,117;  170,717; 1317,250;82,02117
1099,55; 1046,717;  118,817; 1210,250;85,01665
1100,09;  889,917;   -8,483; 1081,250;82,44219

