
Integration time [ms]: 4000,000
Averaging Nr. [scans]: 10
Smoothing Nr. [pixels]: 0
Data measured with spectrometer [name]: 1803151U1
Wave   ;Sample   ;Dark     ;Reference;Transmittance
[nm]   ;[counts] ;[counts] ;[counts] ;[%]

 195,95; 2464,505; 2512,211; 2076,359; 0,00000
 196,55; 2205,260; 2248,177; 1879,745; 0,00000
 197,15; 1794,071; 1889,168; 1528,168; 0,00000
 197,76; 3227,261; 3337,208; 2816,426; 0,00000
 198,36; 1855,860; 1977,179; 1568,457; 0,00000
 198,96; 2934,227; 2924,209; 2596,901; 0,00000
 199,56; 2282,238; 2350,196; 1995,900; 0,00000
 200,16; 1915,227; 1989,201; 1687,053; 0,00000
 200,76; 1512,527; 1685,215; 1406,037; 0,00000
 201,36; 3424,328; 3433,245; 2979,718; 0,00000
 201,96; 1610,884; 1810,244; 1392,498; 0,00000
 202,56; 2256,217; 2387,230; 1855,750; 0,00000
 203,16; 2431,138; 2437,212; 2090,596; 0,00000
 203,76; 1894,561; 1921,209; 1595,138; 0,00000
 204,36; 1596,149; 1623,205; 1368,731; 0,00000
 204,96; 2308,505; 2441,189; 1983,526; 0,00000
 205,56; 1971,426; 2036,169; 1688,660; 0,00000
 206,16; 1600,349; 1647,182; 1411,898; 0,00000
 206,76; 1979,038; 2095,177; 1754,491; 0,00000
 207,36; 2783,427; 2848,195; 2372,917; 0,00000
 207,96; 2755,016; 2813,180; 2386,949; 0,00000
 208,56; 2360,583; 2438,205; 2018,968; 0,00000
 209,16; 1886,205; 1922,191; 1696,238; 0,00000
 209,76; 1454,727; 1522,193; 1319,204; 0,00000
 210,36; 1728,460; 1836,191; 1551,730; 0,00000
 210,96; 2063,083; 2125,203; 1748,256; 0,00000
 211,56; 1999,172; 2061,196; 1723,137; 0,00000
 212,16; 4402,771; 4457,174; 3828,304; 0,00000
 212,76; 1796,326; 1847,169; 1585,660; 0,00000
 213,36; 2625,249; 2664,197; 2176,883; 0,00000
 213,96; 2310,471; 2441,196; 1892,137; 0,00000
 214,56; 2033,860; 2139,175; 1840,033; 0,00000
 215,16; 1929,538; 2019,177; 1811,491; 0,00000
 215,76; 3906,461; 4018,209; 3410,138; 0,00000
 216,36; 1509,249; 1672,190; 1301,747; 0,00000
 216,96; 3308,272; 3403,214; 2975,546; 0,00000
 217,56; 1851,038; 1916,188; 1586,051; 0,00000
 218,16; 2311,427; 2392,219; 2041,461; 0,00000
 218,75; 1588,994; 1669,194; 1461,679; 0,00000
 219,35; 1736,171; 1884,184; 1607,865; 0,00000
 219,95; 2350,038; 2354,173; 2088,067; 0,00000
 220,55; 2147,505; 2260,183; 1869,390; 0,00000
 221,15; 2976,438; 2926,179; 2503,203; 0,00000
 221,75; 1908,493; 1985,168; 1672,422; 0,00000
 222,35; 2239,883; 2386,201; 1923,544; 0,00000
 222,95; 3245,416; 3343,186; 2755,085; 0,00000
 223,55; 3065,694; 3174,196; 2711,391; 0,00000
 224,15; 2566,471; 2599,172; 2325,592; 0,00000
 224,75; 2276,682; 2235,171; 1952,863; 0,00000
 225,35; 1912,016; 1933,176; 1768,525; 0,00000
 225,95; 2709,883; 2766,189; 2414,272; 0,00000
 226,55; 1869,227; 1901,185; 1635,356; 0,00000
 227,15; 1866,738; 1968,190; 1610,763; 0,00000
 227,75; 2989,616; 3068,186; 2662,085; 0,00000
 228,34; 2013,815; 2055,168; 1791,677; 0,00000
 228,94; 2562,227; 2671,193; 2205,204; 0,00000
 229,54; 1811,583; 1835,211; 1582,104; 0,00000
 230,14; 2201,149; 2360,198; 1959,595; 0,00000
 230,74; 1764,972; 1818,206; 1609,697; 0,00000
 231,34; 1851,416; 1932,204; 1559,494; 0,00000
 231,94; 2326,739; 2514,210; 2155,884; 0,00000
 232,54; 1758,949; 1828,203; 1623,019; 0,00000
 233,14; 2342,205; 2258,207; 2088,935; 0,00000
 233,74; 1832,216; 1933,214; 1557,054; 0,00000
 234,33; 1839,149; 1958,198; 1499,595; 0,00000
 234,93; 1879,182; 1895,177; 1672,000; 0,00000
 235,53; 1860,660; 1866,193; 1694,442; 0,00000
 236,13; 2159,305; 2229,201; 1821,798; 0,00000
 236,73; 2218,816; 2391,218; 1982,478; 0,00000
 237,33; 2134,115; 2293,166; 1897,964; 0,00000
 237,93; 3322,282; 3516,195; 2888,408; 0,00000
 238,53; 1898,738; 1915,182; 1606,915; 0,00000
 239,12; 3741,293; 3789,184; 3162,119; 0,00000
 239,72; 3021,694; 3098,206; 2618,951; 0,00000
 240,32; 1329,895; 1577,232;  989,208; 0,00000
 240,92; 1411,149; 1418,194; 1190,171; 0,00000
 241,52; 1758,205; 1870,201; 1439,798; 0,00000
 242,12; 2632,771; 2711,186; 2257,577; 0,00000
 242,72; 1710,583; 1863,191; 1518,984; 0,00000
 243,31; 1790,460; 1711,197; 1419,866; 0,00000
 243,91; 2261,494; 2297,194; 1878,679; 0,00000
 244,51; 1446,338; 1471,206; 1184,460; 0,00000
 245,11; 4169,872; 4298,198; 3702,849; 0,00000
 245,71; 2726,349; 2738,187; 2398,323; 0,00000
 246,31; 3205,783; 3422,203; 2813,256; 0,00000
 246,90; 3512,138; 3551,206; 3039,460; 0,00000
 247,50; 1674,772; 1878,206; 1524,697; 0,00000
 248,10; 2170,350; 2245,208; 1869,155; 0,00000
 248,70; 1294,460; 1439,181; 1179,169; 0,00000
 249,30; 2091,972; 2143,217; 1718,258; 0,00000
 249,90; 1661,828; 1796,225; 1440,597; 0,00000
 250,49; 1910,761; 2091,218; 1615,987; 0,00000
 251,09; 1806,927; 1853,199; 1525,341; 0,00000
 251,69; 2335,205; 2432,199; 2054,086; 0,00000
 252,29; 2216,549; 2296,200; 1862,307; 0,00000
 252,89; 2074,961; 2158,228; 1705,547; 0,00000
 253,48; 2020,238; 2050,206; 1613,460; 0,00000
 254,08; 1306,227; 1391,193; 1076,204; 0,00000
 254,68; 1227,705; 1292,207; 1006,935; 0,00000
 255,28; 2015,427; 2166,211; 1719,613; 0,00000
 255,88; 2019,227; 2025,193; 1645,204; 0,00000
 256,47; 1347,983; 1477,195; 1101,408; 0,00000
 257,07; 1949,716; 2022,196; 1766,645; 0,00000
 257,67; 2473,015; 2516,168; 2154,677; 0,00000
 258,27; 2108,739; 2125,208; 1747,172; 0,00000
 258,86; 2628,249; 2807,180; 2181,186; 0,00000
 259,46; 1724,861; 1821,228; 1522,547; 0,00000
 260,06; 1899,639; 1989,218; 1618,732; 0,00000
 260,66; 1923,350; 2100,227; 1724,564; 0,00000
 261,26; 3126,027; 3119,203; 2710,765; 0,00000
 261,85; 1259,516; 1372,220; 1097,190; 0,00000
 262,45; 2066,238; 2149,202; 1811,036; 0,00000
 263,05; 1929,583; 1985,201; 1644,544; 0,00000
 263,65; 1203,983; 1328,227;  950,801; 0,00000
 264,24; 2740,816; 2882,180; 2527,949; 0,00000
 264,84; 2364,838; 2400,204; 1927,748; 0,00000
 265,44; 2553,161; 2567,209; 2080,138; 0,00000
 266,04; 1604,761; 1699,228; 1361,547; 0,00000
 266,63; 1745,938; 1826,192; 1554,475; 0,00000
 267,23; 1149,806; 1167,227; 1020,055; 0,00000
 267,83; 1966,360; 2038,193; 1685,442; 0,00000
 268,42; 1533,472; 1568,200; 1287,561; 0,00000
 269,02; 2909,350; 2966,229; 2492,276; 0,00000
 269,62; 1978,627; 2085,197; 1754,629; 0,00000
 270,22; 1097,594; 1248,210;  854,376; 0,00000
 270,81; 1970,827; 2089,191; 1769,492; 0,00000
 271,41; 1955,172; 2144,239; 1660,090; 0,00000
 272,01; 2003,994; 2081,202; 1650,527; 0,00000
 272,61; 1934,282; 1929,191; 1613,984; 0,00000
 273,20; 2460,006; 2612,235; 2034,904; 0,00000
 273,80; 1567,339; 1667,214; 1312,308; 0,00000
 274,40; 1383,805; 1486,215; 1142,783; 0,00000
 274,99; 1900,894; 2101,228; 1650,784; 0,00000
 275,59; 2239,705; 2333,213; 1915,071; 0,00000
 276,19; 2659,750; 2646,223; 2198,140; 0,00000
 276,78; 1974,816; 2088,192; 1631,221; 0,00000
 277,38; 1522,571; 1587,190; 1171,001; 0,00000
 277,98; 1708,139; 1877,222; 1413,156; 0,00000
 278,57; 1521,282; 1695,191; 1302,984; 0,00000
 279,17; 1897,805; 1921,193; 1563,950; 0,00000
 279,77; 4087,516; 4198,194; 3583,933; 0,00000
 280,37; 1785,995; 1924,238; 1480,344; 0,00000
 280,96; 1472,016; 1501,220; 1220,190; 0,00000
 281,56; 1206,705; 1214,211;  952,359; 0,00000
 282,16; 1420,494; 1549,222; 1292,648; 0,00000
 282,75; 1313,638; 1387,173; 1267,067; 0,00000
 283,35; 1713,961; 1704,230; 1464,259; 0,00000
 283,95; 1777,561; 1859,226; 1452,835; 0,00000
 284,54; 1605,739; 1545,226; 1349,581; 0,00000
 285,14; 1862,705; 1953,225; 1562,343; 0,00000
 285,73; 2201,205; 2212,209; 1864,647; 0,00000
 286,33; 1446,272; 1524,220; 1171,682; 0,00000
 286,93; 1533,005; 1566,225; 1300,343; 0,00000
 287,52; 2019,295; 2235,234; 1436,920; 0,00000
 288,12; 2286,083; 2309,238; 1801,361; 0,00000
 288,72; 2386,673; 2490,241; 1879,802; 0,00000
 289,31; 2256,250; 2248,225; 1959,852; 0,00000
 289,91; 2921,339; 3013,214; 2513,308; 0,00000
 290,51; 1871,972; 1930,206; 1662,697; 0,00000
 291,10; 2208,494; 2219,204; 1897,239; 0,00000
 291,70; 1434,995; 1543,246; 1242,193; 0,00000
 292,29; 2026,116; 2086,198; 1774,357; 0,00000
 292,89; 1644,105; 1583,207; 1378,935; 0,00000
 293,49; 2102,794; 2343,222; 1707,648; 0,00000
 294,08; 1102,805; 1244,223;  864,631; 0,00000
 294,68; 1402,561; 1524,216; 1166,274; 0,00000
 295,28; 1818,205; 1973,213; 1567,071; 0,00000
 295,87; 1668,083; 1670,199; 1442,832; 0,00000
 296,47; 1791,072; 1810,212; 1460,833; 0,00000
 297,06; 2105,683; 2246,213; 1780,817; 0,00000
 297,66; 1153,183; 1230,231;  898,225; 0,00000
 298,26;  897,517; 1001,226;  699,326; 0,00000
 298,85; 2026,594; 2011,212; 1687,088; 0,00000
 299,45; 1694,460; 1737,197; 1470,866; 0,00000
 300,04; 1634,183; 1731,203; 1442,256; 0,00000
 300,64; 1726,705; 1835,183; 1450,390; 0,00000
 301,23; 2060,961; 2145,230; 1765,259; 0,00000
 301,83; 1809,416; 1820,204; 1470,494; 0,00000
 302,43; 1878,083; 1863,225; 1539,089; 0,00000
 303,02; 1451,560; 1508,181; 1342,169; 0,00000
 303,62; 1631,961; 1624,203; 1264,002; 0,00000
 304,21; 2262,749; 2335,172; 1997,338; 0,00000
 304,81; 2374,627; 2406,199; 2043,341; 0,00000
 305,40; 1755,182; 1888,183; 1457,136; 0,00000
 306,00; 1687,072; 1844,216; 1386,258; 0,00000
 306,59; 1939,683; 1864,195; 1555,408; 0,00000
 307,19; 1301,816; 1366,212; 1081,342; 0,00000
 307,79; 1673,072; 1783,202; 1412,273; 0,00000
 308,38; 1754,826; 1870,144; 1542,115; 0,00000
 308,98; 1234,049; 1278,198;  982,595; 0,00000
 309,57; 1267,995; 1302,232; 1062,208; 0,00000
 310,17; 1983,052; 2087,328; 1573,167; 0,00000
 310,76; 2237,208; 2448,350; 1933,491; 0,00000
 311,36; 1680,751; 1691,263; 1274,381; 0,00000
 311,95; 1324,838; 1473,198; 1111,612; 0,00000
 312,55; 3047,428; 3163,259; 2738,702; 0,00000
 313,14; 1042,039; 1094,232;  778,717; 0,00000
 313,74; 1202,550; 1356,215; 1009,291; 0,00000
 314,33; 1990,249; 1984,197; 1726,883; 0,00000
 314,93; 2181,983; 2227,205; 1826,968; 0,00000
 315,52; 1953,083; 2056,215; 1713,529; 0,00000
 316,12; 1659,860; 1705,201; 1416,290; 0,00000
 316,71; 5224,072; 5380,223; 4521,394; 0,00000
 317,31;  855,728;  832,217;  730,749; 0,00000
 317,90; 1331,839; 1406,228; 1099,293; 0,00000
 318,50; 1187,150; 1180,215; 1053,291; 0,00000
 319,09; 1026,605; 1143,199;  796,086; 0,00000
 319,69; 1675,672; 1842,219; 1366,970; 0,00000
 320,28; 1699,316; 1746,208; 1395,918; 0,00000
 320,88; 1530,860; 1595,191; 1231,730; 0,00000
 321,47; 1142,450;  986,215;  880,291; 0,00000
 322,07; 1275,294; 1448,220; 1110,936; 0,00000
 322,66; 1269,983; 1325,207;  935,680; 0,00000
 323,26; 1285,793; 1353,184; 1019,119; 0,00000
 323,85; 1653,927; 1714,217; 1285,749; 0,00000
 324,45;  852,705;  977,211;  636,359; 0,00000
 325,04; 1194,272; 1254,206;  979,697; 0,00000
 325,64; 1631,261; 1683,222; 1361,411; 0,00000
 326,23; 1301,683; 1433,213; 1129,817; 0,00000
 326,83; 1956,794; 2037,204; 1670,239; 0,00000
 327,42; 1554,017; 1727,226; 1279,326; 0,00000
 328,01; 1520,339; 1553,210; 1326,884; 0,00000
 328,61;  774,839;  856,226;  639,581; 0,00000
 329,20; 2064,272; 2137,202; 1746,273; 0,00000
 329,80;  819,882;  843,181;  651,424; 0,00000
 330,39; 1459,883; 1520,213; 1233,817; 0,00000
 330,99; 1104,194; 1175,212;  839,088; 0,00000
 331,58; 1186,561; 1280,212;  863,850; 0,00000
 332,17; 1874,783; 1979,207; 1620,680; 0,00000
 332,77; 2524,449; 2584,200; 2206,307; 0,00000
 333,36; 1408,516; 1382,194; 1197,933; 0,00000
 333,96;  729,805;  904,217;  581,495; 0,00000
 334,55;  979,749; 1104,190;  811,747; 0,00000
 335,15; 1091,216; 1114,208;  889,918; 0,00000
 335,74; 1278,072; 1342,200; 1093,561; 0,00000
 336,33; 1126,161; 1267,212;  958,850; 0,00000
 336,93; 1436,827; 1518,205; 1253,477; 0,00000
 337,52; 1428,005; 1560,211; 1232,359; 0,00000
 338,12; 1501,694; 1535,204; 1133,239; 0,00000
 338,71; 1422,927; 1601,209; 1216,901; 0,00000
 339,30; 2070,772; 2224,210; 1732,121; 0,00000
 339,90; 1267,561; 1419,242; 1036,531; 0,00000
 340,49; 1372,705; 1452,205; 1101,223; 0,00000
 341,08; 1442,650; 1540,225; 1162,852; 0,00000
 341,68; 1337,261; 1365,212; 1112,850; 0,00000
 342,27; 1887,383; 1946,207; 1571,680; 0,00000
 342,87; 1520,472; 1610,223; 1378,394; 0,00000
 343,46; 2035,282; 2096,191; 1689,984; 0,00000
 344,05; 1651,938; 1746,212; 1322,596; 0,00000
 344,65; 1956,382; 2023,191; 1616,984; 0,00000
 345,24; 1866,716; 1907,196; 1548,645; 0,00000
 345,83; 2124,360; 2147,189; 1714,018; 0,00000
 346,43; 1100,505; 1126,207;  953,935; 0,00000
 347,02;  910,105; 1055,189;  736,526; 0,00000
 347,61; 1013,295; 1148,234;  886,920; 0,00000
 348,21; 2122,872; 2216,200; 1767,561; 0,00000
 348,80;  736,127;  738,209;  504,901; 0,00000
 349,40; 1030,872; 1031,206;  789,697; 0,00000
 349,99; 1129,605; 1148,193;  907,950; 0,00000
 350,58; 1454,172; 1666,235; 1199,666; 0,00000
 351,18; 1368,238; 1428,202; 1200,036; 0,00000
 351,77; 1118,116; 1195,214;  832,054; 0,00000
 352,36; 1023,427; 1008,193;  813,204; 0,00000
 352,96;  666,594;  716,200;  449,815; 0,00000
 353,55; 1764,750; 1825,231; 1544,988; 0,00000
 354,14; 1297,072; 1280,210; 1059,121; 0,00000
 354,73;  709,494;  806,202;  495,527; 0,00000
 355,33; 1041,360; 1146,197;  849,866; 0,00000
 355,92; 1383,261; 1422,222; 1242,411; 0,00000
 356,51;  725,906;  801,231;  586,479; 0,00000
 357,11;  955,461; 1008,234;  789,683; 0,00000
 357,70; 1431,817; 1529,254; 1161,295; 0,00000
 358,29; 1048,072; 1067,220;  900,682; 0,00000
 358,89; 1043,883; 1209,223;  903,377; 0,00000
 359,48; 1048,051; 1093,259;  833,957; 0,00000
 360,07; 1921,050; 1912,231; 1628,988; 0,00000
 360,66; 1369,773; 1447,269; 1121,771; 0,00000
 361,26; 2172,718; 2198,282; 1792,264; 0,00000
 361,85; 1294,129; 1233,265;  956,839; 0,00000
 362,44; 1464,285; 1515,302; 1171,147; 0,00000
 363,04; 1055,463; 1020,300;  978,181; 0,00000
 363,63; 1137,174; 1100,317;  826,861; 0,00000
 364,22; 1497,074; 1455,321; 1169,285; 0,00000
 364,81; 1232,441; 1163,337; 1108,744; 0,00000
 365,41; 1880,275; 1782,337; 1561,981; 0,00000
 366,00;  786,752;  624,332;  630,591;2594,83004
 366,59; 1820,141; 1882,302; 1535,639; 0,00000
 367,18; 3183,707; 3068,308; 2811,538; 0,00000
 367,78; 1345,629; 1262,293; 1145,807; 0,00000
 368,37; 1164,096; 1067,279; 1037,586; 0,00000
 368,96; 1008,407;  762,278;  903,857;173,84549
 369,55; 1699,651; 1523,265; 1474,093; 0,00000
 370,15; 1442,851; 1370,273; 1223,941; 0,00000
 370,74; 2046,995; 1903,265; 1754,601; 0,00000
 371,33; 1732,761; 1618,242; 1382,531; 0,00000
 371,92; 2315,284; 2245,280; 2039,315; 0,00000
 372,51; 1704,429; 1704,277; 1382,111; 0,00000
 373,11; 1119,085; 1143,296;  851,011; 0,00000
 373,70; 1022,152; 1190,299;  801,198; 0,00000
 374,29;  939,152;  975,315;  767,894; 0,00000
 374,88; 1385,429; 1357,283; 1112,247; 0,00000
 375,48; 1350,507; 1340,286; 1149,705; 0,00000
 376,07; 1412,740; 1326,254; 1304,549; 0,00000
 376,66; 1047,729;  949,267;  866,551; 0,00000
 377,25;  645,429;  488,279;  529,823;378,27489
 377,84; 2177,996; 2123,279; 1866,586; 0,00000
 378,44; 1834,607; 1778,290; 1448,129; 0,00000
 379,03;  916,562;  871,266;  732,076; 0,00000
 379,62; 1040,073; 1017,281;  748,044; 0,00000
 380,21;  656,251;  682,289;  498,638; 0,00000
 380,80; 1130,629; 1126,287;  984,671; 0,00000
 381,39;  566,929;  529,287;  407,671; 0,00000
 381,99; 1204,273; 1182,277;  958,620; 0,00000
 382,58; 1756,040; 1809,266; 1456,822; 0,00000
 383,17; 2127,840; 2057,270; 1796,246; 0,00000
 383,76; 2288,228; 2241,251; 1981,854; 0,00000
 384,35; 2041,929; 1937,263; 1762,127; 0,00000
 384,94; 2579,673; 2619,259; 2210,211; 0,00000
 385,54; 2130,540; 2011,278; 1737,094; 0,00000
 386,13;  992,674; 1009,295;  778,028; 0,00000
 386,72; 1746,196; 1791,283; 1518,010; 0,00000
 387,31; 1230,629; 1159,279;  970,823; 0,00000
 387,90; 1013,518; 1070,286;  720,688; 0,00000
 388,49;  981,174;  986,289;  847,892; 0,00000
 389,08; 2490,807; 2261,290; 2063,129; 0,00000
 389,68; 1428,940; 1432,272; 1113,958; 0,00000
 390,27; 1349,984; 1340,268; 1154,042; 0,00000
 390,86; 1299,829; 1293,271; 1180,975; 0,00000
 391,45; 1277,718; 1283,266; 1061,568; 0,00000
 392,04; 2114,040; 1975,256; 1823,261; 0,00000
 392,63;  605,895;  522,269;  382,025; 0,00000
 393,22; 1019,729;  996,271;  840,975; 0,00000
 393,81;  955,195;  877,257;  686,753; 0,00000
 394,41;  938,762;  944,288;  610,909; 0,00000
 395,00;  979,929;  912,285;  744,959; 0,00000
 395,59;  468,607;  499,272;  374,721; 0,00000
 396,18; 1105,173; 1120,277;  975,620; 0,00000
 396,77; 1226,528; 1215,257; 1036,990; 0,00000
 397,36; 2848,750; 2812,247; 2348,684; 0,00000
 397,95; 1303,917; 1286,264; 1011,856; 0,00000
 398,54;  846,484;  742,266;  703,330; 0,00000
 399,13; 1627,562; 1596,258; 1338,228; 0,00000
 399,72;  548,540;  524,278;  324,094; 0,00000
 400,31;  962,463; 1072,300;  709,181; 0,00000
 400,90; 1342,528; 1271,251; 1094,854; 0,00000
 401,50; 1387,107; 1429,282; 1116,281; 0,00000
 402,09; 1645,151; 1550,269; 1309,517; 0,00000
 402,68; 1517,129; 1518,287; 1215,671; 0,00000
 403,27;  887,673;  870,277;  658,620; 0,00000
 403,86;  910,395;  968,273;  704,450; 0,00000
 404,45;  689,884;  647,260;  533,194; 0,00000
 405,04; 1772,695; 1679,253; 1596,329; 0,00000
 405,63; 1247,106; 1191,253; 1017,312; 0,00000
 406,22;  865,873;  771,283;  652,756; 0,00000
 406,81; 1292,707; 1238,274; 1084,433; 0,00000
 407,40; 1560,172; 1594,237; 1237,378; 0,00000
 407,99; 1838,440; 1804,282; 1518,518; 0,00000
 408,58; 1734,785; 1770,282; 1422,027; 0,00000
 409,17; 2034,584; 1960,264; 1691,618; 0,00000
 409,76; 1984,996; 1959,285; 1659,722; 0,00000
 410,35;  880,362;  807,254;  772,804; 0,00000
 410,94; 1308,429; 1318,271;  960,975; 0,00000
 411,53; 2006,574; 1993,291; 1656,604; 0,00000
 412,12; 1077,761;  968,244;  832,243; 0,00000
 412,71;  852,440;  922,292;  739,079; 0,00000
 413,30;  890,329;  854,263;  685,127; 0,00000
 413,89;  640,829;  667,279;  502,823; 0,00000
 414,48;  698,140;  745,262;  433,398; 0,00000
 415,07; 1506,150; 1542,239; 1234,836; 0,00000
 415,66;  902,884;  913,252;  791,346; 0,00000
 416,25; 1985,251; 1895,259; 1647,957; 0,00000
 416,84; 2399,973; 2354,263; 1951,635; 0,00000
 417,43;  970,373;  985,259;  743,211; 0,00000
 418,02; 1296,573; 1301,277; 1018,620; 0,00000
 418,61;  893,951;  831,269;  642,517; 0,00000
 419,20;  862,184;  844,264;  641,618; 0,00000
 419,79;  769,006;  761,266;  693,584; 0,00000
 420,38; 1199,751; 1217,271;  952,229; 0,00000
 420,97; 2048,539; 2023,246; 1722,701; 0,00000
 421,56; 1043,984; 1016,254;  782,058; 0,00000
 422,15;  880,607;  846,276;  665,145; 0,00000
 422,74; 2192,440; 2179,282; 1690,518; 0,00000
 423,33; 1176,617; 1225,248;  966,159; 0,00000
 423,92; 1649,106; 1710,270; 1351,009; 0,00000
 424,51; 1212,795; 1018,257;  931,753; 0,00000
 425,10; 1103,840;  995,262;  993,398; 0,00000
 425,69;  844,584;  916,256;  718,770; 0,00000
 426,28;  906,061;  819,238;  734,107; 0,00000
 426,87; 1135,528; 1087,229;  942,022; 0,00000
 427,46; 2832,939; 2719,238; 2400,853; 0,00000
 428,04;  647,684;  640,237;  491,361; 0,00000
 428,63; 1273,917; 1126,246;  926,447; 0,00000
 429,22;  879,306;  778,257;  677,736; 0,00000
 429,81; 1351,861; 1268,240; 1054,819; 0,00000
 430,40;  447,639;  408,236;  347,141; 0,00000
 430,99; 1591,628; 1422,251; 1330,854; 0,00000
 431,58; 2630,417; 2577,262; 2187,144; 0,00000
 432,17; 2335,628; 2257,247; 1898,430; 0,00000
 432,76; 1601,717; 1540,244; 1351,735; 0,00000
 433,35; 1707,928; 1642,249; 1376,142; 0,00000
 433,94; 2323,773; 2103,257; 1952,499; 0,00000
 434,52;  417,528;  437,233;  261,446; 0,00000
 435,11; 1151,161; 1175,214;  906,562; 0,00000
 435,70;  842,650;  776,245;  615,972; 0,00000
 436,29;  466,384;  457,256;  370,770; 0,00000
 436,88; 1565,695; 1488,263; 1257,889; 0,00000
 437,47; 1272,750; 1161,231; 1032,988; 0,00000
 438,06; 1137,683; 1074,235;  912,649; 0,00000
 438,65; 4095,895; 4070,269; 3602,025; 0,00000
 439,23;  939,662;  917,262;  702,652; 0,00000
 439,82; 1962,507; 1920,274; 1583,433; 0,00000
 440,41; 1319,083; 1247,229; 1048,513; 0,00000
 441,00; 1361,973; 1311,257; 1074,499; 0,00000
 441,59; 1699,562; 1597,272; 1458,212; 0,00000
 442,18; 1196,073; 1169,253;  991,075; 0,00000
 442,77;  813,817;  704,226;  628,326; 0,00000
 443,35; 2200,206; 1990,233; 1793,191; 0,00000
 443,94; 1726,229; 1688,259; 1494,703; 0,00000
 444,53;  798,640;  649,262;  675,398;571,54891
 445,12; 1643,539; 1553,248; 1421,413; 0,00000
 445,71; 1607,839; 1554,234; 1348,429; 0,00000
 446,30; 2232,284; 2223,262; 1883,906; 0,00000
 446,88;  794,851;  738,251;  667,108; 0,00000
 447,47; 1530,428; 1461,255; 1334,278; 0,00000
 448,06;  877,450;  781,231;  686,988; 0,00000
 448,65; 1629,762; 1531,260; 1325,940; 0,00000
 449,24; 2064,895; 1988,263; 1829,889; 0,00000
 449,82;  975,262;  795,260;  802,940;2343,79629
 450,41; 1215,162; 1185,268; 1101,788; 0,00000
 451,00; 1256,584; 1155,256; 1123,770; 0,00000
 451,59;  486,595;  426,242;  348,769; 0,00000
 452,18; 1009,973;  940,249;  869,651; 0,00000
 452,76;  846,662;  738,254;  632,804; 0,00000
 453,35; 1165,451; 1133,259; 1042,957; 0,00000
 453,94; 1012,106;  974,247;  812,176; 0,00000
 454,53; 1199,139; 1041,246;  978,701; 0,00000
 455,12; 1604,140; 1522,260; 1244,686; 0,00000
 455,70;  843,639;  707,254;  647,549; 0,00000
 456,29; 1024,661;  875,236;  838,395; 0,00000
 456,88; 2047,484; 1889,242; 1761,786; 0,00000
 457,47; 2532,217; 2401,232; 2043,463; 0,00000
 458,05; 1266,195; 1211,253; 1103,329; 0,00000
 458,64; 1197,250; 1118,227;  982,564; 0,00000
 459,23;  827,328;  650,251;  609,854; 0,00000
 459,82; 1954,439; 1747,242; 1593,277; 0,00000
 460,40; 1350,251; 1235,259; 1022,957; 0,00000
 460,99; 1195,072; 1078,223;  966,394; 0,00000
 461,58; 1512,261; 1349,242; 1363,531;1140,83120
 462,17;  422,751;  253,251;  358,108;161,64751
 462,75;  799,539;  622,248;  650,413;629,46871
 463,34; 1267,750; 1102,245; 1005,972; 0,00000
 463,93; 1331,573; 1155,257; 1113,499; 0,00000
 464,52; 1501,283; 1361,227; 1346,801; 0,00000
 465,10; 1246,451; 1041,265; 1048,093;3005,11674
 465,69; 1837,250; 1525,221; 1605,427;389,03089
 466,28;  627,228;  387,231;  483,734;248,69469
 466,86; 1721,084; 1618,244; 1477,498; 0,00000
 467,45;  518,451;  211,259;  321,957;277,50504
 468,04;  501,417;  291,248;  408,159;179,76860
 468,63; 1277,306; 1081,253; 1074,312; 0,00000
 469,21; 1518,650; 1182,229; 1239,276;589,72651
 469,80; 1982,651; 1571,251; 1662,108;452,79684
 470,39; 1668,416; 1430,218; 1456,478;907,07223
 470,97; 1002,773;  696,253;  812,075;264,64758
 471,56;  782,873;  415,263;  676,635;140,64621
 472,15; 1414,994; 1107,226; 1102,072; 0,00000
 472,73; 1146,728;  832,249;  986,142;204,34920
 473,32; 1694,728; 1365,231; 1503,734;237,89923
 473,91;  622,606;  352,237;  533,616;149,06329
 474,49; 2028,083; 1718,238; 1771,361;583,25283
 475,08;  851,272;  610,227;  727,818;204,98573
 475,67; 1273,350;  876,233; 1115,700;165,83381
 476,25; 2078,017; 1723,226; 1768,326;786,67139
 476,84;  935,595;  542,232;  801,208;151,89139
 477,43; 1462,317; 1167,250; 1285,871;248,74792
 478,01; 1700,228; 1415,247; 1493,430;364,50525
 478,60;  667,806;  346,231;  579,479;137,86793
 479,19; 1357,428; 1010,223; 1198,885;184,03488
 479,77; 1069,917;  727,242;  905,023;192,75147
 480,36; 1003,217;  630,236;  818,887;197,70989
 480,94; 1021,383;  604,229;  890,513;145,71348
 481,53; 1559,039; 1159,244; 1177,989;2132,79630
 482,12; 1546,150; 1177,211; 1476,867;123,12062
 482,70; 1255,606;  864,229; 1201,767;115,95027
 483,29; 1039,239;  675,224;  946,868;134,00409
 483,88; 1022,516;  622,220;  865,190;164,75133
 484,46;  997,661;  616,232;  767,971;251,37167
 485,05; 1210,284;  793,242; 1093,786;138,76239
 485,63; 1970,751; 1592,253; 1669,821;487,95831
 486,22; 1332,739;  898,212; 1241,596;126,54240
 486,81;  777,339;  463,246;  671,701;150,67666
 487,39; 1050,638;  518,200; 1004,324;109,52732
 487,98; 1070,650;  611,225;  944,852;137,70628
 488,56; 1521,406; 1156,245; 1321,464;221,01672
 489,15; 1763,106; 1393,251; 1729,600;109,96172
 489,74; 2222,250; 1708,225; 2063,852;144,54063
 490,32; 1249,428;  851,247; 1152,430;132,20573
 490,91; 1020,739;  528,228;  993,293;105,90161
 491,49; 1140,561;  616,232;  932,971;165,53978
 492,08; 1334,506;  857,245; 1094,464;201,19030
 492,66; 2525,039; 2032,240; 2240,565;236,55307
 493,25; 1110,739;  564,224; 1015,868;121,00552
 493,84; 1795,683; 1310,229; 1559,513;194,73961
 494,42; 1487,339;  864,220; 1294,444;144,83575
 495,01; 1802,795; 1247,248; 1689,905;125,50288
 495,59; 1458,328;  912,221; 1327,173;131,60707
 496,18; 1071,839;  508,236;  897,141;144,92055
 496,76; 1532,251; 1051,253; 1416,821;131,57557
 497,35;  829,850;  268,227;  732,564;120,95165
 497,93; 1763,750; 1142,239; 1542,836;155,14622
 498,52; 1173,828;  602,249; 1058,142;125,37570
 499,10; 1751,783; 1198,221; 1522,665;170,61886
 499,69; 2860,095; 2214,244; 2478,481;244,42148
 500,27; 2713,328; 2094,219; 2412,461;194,54009
 500,86; 2566,172; 1877,210; 2182,121;225,95501
 501,44; 3046,706; 2355,235; 2636,904;245,49112
 502,03; 1189,127;  607,205; 1170,477;103,31108
 502,61; 1505,350;  839,229; 1340,276;132,94586
 503,20;  783,772;  155,214;  798,546;97,70357
 503,78; 1911,494; 1317,210; 1721,376;147,03975
 504,37; 1177,105;  512,207; 1040,935;125,75436
 504,95; 3033,628; 2418,239; 2735,582;193,91931
 505,54;  888,672;  256,210;  787,121;119,12758
 506,12; 2061,683; 1252,209; 1903,392;124,30812
 506,71; 1380,794;  623,194; 1181,679;135,65263
 507,29; 1328,361;  696,226; 1157,835;136,94173
 507,88; 1267,516;  511,198; 1220,357;106,64992
 508,46;  818,328;  110,227;  679,309;124,42850
 509,05; 1238,450;  460,221; 1067,427;128,16542
 509,63; 3178,228; 2504,227; 2809,310;220,92407
 510,22; 1283,184;  552,240; 1191,073;114,41847
 510,80; 3152,794; 2334,230; 2850,496;158,55470
 511,39; 2646,239; 1877,214; 2395,308;148,43334
 511,97; 1733,217; 1054,234; 1649,175;114,12616
 512,55; 3506,161; 2784,224; 3263,123;150,74932
 513,14; 1305,516;  532,204; 1227,494;111,22158
 513,72; 2205,672; 1307,216; 2022,258;125,65087
 514,31; 2380,939; 1601,222; 2327,156;107,40869
 514,89; 2648,683; 1917,234; 2543,937;116,71381
 515,48; 1805,105;  974,205; 1573,223;138,71046
 516,06; 2373,838; 1444,186; 2138,339;133,92599
 516,65; 1634,139;  798,232; 1536,717;113,19216
 517,23;  913,439;   59,226;  838,581;109,60516
 517,81; 1532,916;  769,218; 1482,478;107,07151
 518,40; 2155,127; 1217,205; 2012,477;117,93731
 518,98; 2192,150; 1368,237; 1937,124;144,82894
 519,57; 1570,005;  689,215; 1525,783;105,28617
 520,15; 1171,860;  272,197; 1190,866;97,93120
 520,73; 1890,117; 1019,232; 1791,463;112,77523
 521,32; 2194,950; 1249,231; 2157,988;104,06733
 521,90; 1537,772;  664,235; 1456,666;110,23511
 522,49; 4025,260; 2943,206; 3711,714;140,79934
 523,07; 1465,850;  466,209; 1408,155;106,12502
 523,65; 3339,050; 2258,215; 3041,291;138,02419
 524,24; 2221,495; 1217,238; 2123,344;110,83208
 524,82; 2274,450; 1130,233; 2122,700;115,29020
 525,40; 2321,272; 1270,210; 2075,121;130,58107
 525,99; 1141,449;   57,205; 1241,731;91,53404
 526,57; 1956,539;  821,214; 1909,308;104,34065
 527,16; 2516,816; 1489,190; 2417,509;110,69746
 527,74; 1240,316;   57,210; 1214,630;102,21928
 528,32; 2565,539; 1449,226; 2384,581;119,34648
 528,91; 1476,960;  285,197; 1492,866;98,68297
 529,49; 1994,139;  767,230; 1965,005;102,43237
 530,07; 1989,349;  765,207; 1979,443;100,81585
 530,66; 1314,649;   37,182; 1372,898;95,63909
 531,24; 1741,716;  495,220; 1744,190;99,80194
 531,82; 1631,217;  471,240; 1673,311;96,49822
 532,41; 2090,794;  844,214; 2035,800;104,61523
 532,99; 1918,616;  649,220; 1971,190;96,02308
 533,57; 2094,650;  815,239; 2130,836;97,24946
 534,16; 2179,605;  896,221; 2117,919;105,04922
 534,74; 1786,239;  424,220; 1877,444;93,72391
 535,32; 2943,716; 1596,212; 2860,342;106,59541
 535,90; 2548,783; 1179,213; 2571,817;98,34600
 536,49; 1867,561;  478,212; 1844,850;101,66177
 537,07; 1508,450;   94,239; 1472,836;102,58336
 537,65; 3441,461; 1980,234; 3315,683;109,41841
 538,24; 1681,883;  184,205; 1798,968;92,74906
 538,82; 2024,083;  556,217; 2256,241;86,34386
 539,40; 3123,482; 1499,181; 2966,424;110,70434
 539,99; 2794,583; 1219,223; 2646,377;110,38475
 540,57; 1958,994;  360,224; 1901,360;103,73973
 541,15; 3128,995; 1496,244; 3092,481;102,28752
 541,73; 2769,050; 1080,241; 2717,548;103,14554
 542,32; 1944,105;  266,207; 1988,935;97,39776
 542,90; 2633,672;  940,218; 2563,970;104,29268
 543,48; 3411,816; 1412,196; 3359,646;102,67891
 544,06; 2591,284;  700,240; 2635,073;97,73677
 544,65; 3374,638; 1574,188; 3386,051;99,37008
 545,23; 2081,160;  121,185; 2157,594;96,24666
 545,81; 4901,627; 2978,219; 4703,461;111,48627
 546,39; 2136,049;   32,188; 2301,034;92,72823
 546,98; 3167,205;  912,199; 3159,086;100,36132
 547,56; 2974,261;  705,212; 2960,850;100,59453
 548,14; 3801,927; 1559,219; 3667,461;106,37812
 548,72; 3766,839; 1499,214; 3553,308;110,39536
 549,31; 2916,139;  550,214; 3014,308;96,01600
 549,89; 3134,749;  690,197; 3430,883;89,19491
 550,47; 3209,383;  787,209; 3374,393;93,62203
 551,05; 3067,717;  570,218; 3098,478;98,78329
 551,63; 4270,716; 1782,218; 4304,478;98,66145
 552,22; 3445,150;  807,219; 3509,715;97,61090
 552,80; 3291,717;  671,232; 3359,463;97,47991
 553,38; 3421,505;  820,187; 3591,814;93,85526
 553,96; 3251,305;  659,215; 3332,783;96,95247
 554,54; 4150,172; 1459,231; 4398,242;91,55941
 555,13; 3426,327;  742,209; 3657,901;92,05768
 555,71; 2714,427;  -79,797; 3010,765;90,41154
 556,29; 4644,872; 1856,200; 4746,561;96,48177
 556,87; 3488,505;  686,207; 3712,935;92,58508
 557,45; 3303,539;  358,240; 3563,565;91,88769
 558,03; 3220,538;  277,190; 3669,763;86,75857
 558,62; 3980,739; 1018,208; 4200,172;93,10384
 559,20; 3426,538;  402,192; 3881,476;86,92439
 559,78; 4522,505; 1505,199; 4696,086;94,56009
 560,36; 3726,494;  651,222; 3973,648;92,56105
 560,94; 3973,027;  795,207; 4241,189;92,21814
 561,52; 5025,850; 1763,201; 5346,307;91,05645
 562,11; 4024,294;  655,200; 4275,815;93,05307
 562,69; 4408,016; 1013,210; 4658,630;93,12524
 563,27; 3532,383;   84,207; 3951,680;89,15836
 563,85; 4711,594; 1212,202; 4898,527;94,92900
 564,43; 3518,894;  -79,788; 3956,088;89,16732
 565,01; 4108,649;  536,205; 4268,731;95,71117
 565,59; 3820,771;  157,184; 4336,865;87,65232
 566,18; 4084,449;  382,203; 4533,019;89,19322
 566,76; 4371,950;  552,233; 4603,700;94,27986
 567,34; 4919,250; 1008,207; 5117,443;95,17688
 567,92; 5006,838; 1082,184; 5267,627;93,76913
 568,50; 4854,805;  895,203; 5036,511;95,61236
 569,08; 5316,205; 1355,203; 5634,511;92,56175
 569,66; 4739,994;  728,192; 5101,967;91,72400
 570,24; 4786,639;  546,236; 5126,141;92,58714
 570,82; 5505,816; 1541,202; 5958,782;89,74629
 571,40; 4471,294;  264,214; 4799,800;92,75715
 571,99; 4542,950;  412,217; 5042,003;89,22081
 572,57; 4767,693;  432,184; 5119,119;92,50202
 573,15; 6080,750; 1761,211; 6365,867;93,80806
 573,73; 4306,394;   -2,796; 4868,239;88,46559
 574,31; 4743,873;  514,233; 5370,954;87,08838
 574,89; 5119,283;  656,193; 5702,696;88,43926
 575,47; 4428,561;    2,201; 5101,290;86,80687
 576,05; 5472,083;  971,227; 6111,801;87,55552
 576,63; 5277,938;  659,190; 6012,763;86,27412
 577,21; 4854,339;  317,224; 5544,869;86,79081
 577,79; 5226,750;  636,205; 5932,731;86,67086
 578,37; 4513,950;  -66,791; 5296,155;85,41463
 578,95; 5014,950;  394,211; 5673,867;87,51969
 579,53; 5059,849;  376,197; 5838,883;85,73900
 580,11; 4544,338;  -62,800; 5654,324;80,58490
 580,69; 5957,360; 1108,203; 6613,002;88,08963
 581,27; 7326,760; 2331,191; 8142,729;85,95950
 581,85; 5547,527;  691,211; 6550,613;82,88075
 582,43; 6334,416; 1266,206; 7145,206;86,20872
 583,01; 5661,983;  641,213; 6603,816;84,20432
 583,59; 5367,783;  254,217; 6471,241;82,25103
 584,17; 6042,472;  904,216; 7038,258;83,76624
 584,75; 5894,238;  630,192; 6991,476;82,75132
 585,33; 6231,250;  905,205; 7246,731;83,98680
 585,91; 6483,849; 1225,197; 7561,883;82,98742
 586,49; 5981,550;  553,221; 6984,428;84,40607
 587,07; 5999,150;  566,227; 6918,563;85,52637
 587,65; 6454,239; 1037,220; 7250,444;87,18531
 588,23; 6317,560;  787,189; 7334,018;84,47405
 588,81; 6658,072; 1029,204; 7497,985;87,01589
 589,39; 6363,671;  583,194; 7268,425;86,46638
 589,97; 7669,816; 1779,210; 8435,630;88,49511
 590,55; 6205,460;  307,205; 7358,714;83,64529
 591,13; 6472,517;  706,236; 7573,887;83,96293
 591,71; 6929,316; 1103,196; 7962,646;84,93568
 592,29; 6571,605;  572,201; 7591,798;85,46650
 592,87; 7274,827; 1292,211; 8363,613;84,60297
 593,45; 6323,738;  258,200; 7483,324;83,95065
 594,03; 7662,572; 1703,204; 8784,985;84,15069
 594,61; 6185,517;  206,234; 7454,175;82,49629
 595,19; 6618,450;  622,207; 7885,443;82,55608
 595,77; 6226,594;  266,208; 7716,664;80,00029
 596,35; 6551,227;  597,197; 7875,628;81,80375
 596,93; 5994,961;  166,232; 7436,971;80,16695
 597,51; 6310,806;  539,227; 7946,055;77,92240
 598,09; 6263,883;  679,221; 8186,665;74,38833
 598,66; 7036,283; 1277,205; 8868,969;75,85955
 599,24; 5932,261;  239,201; 8100,290;72,42075
 599,82; 6927,227; 1287,201; 8964,053;73,46796
 600,40; 6067,450;  420,221; 8511,428;69,79464
 600,98; 7110,050; 1674,225; 9225,852;71,98217
 601,56; 5697,850;  303,213; 8039,579;69,73089
 602,14; 5902,471;  474,190; 8382,001;68,64455
 602,72; 6021,671;  608,198; 8602,849;67,71369
 603,30; 5847,250;  714,215; 8521,291;65,74849
 603,87; 6021,593;  849,170; 8879,135;64,41402
 604,45; 6121,427;  880,213; 9010,325;64,46669
 605,03; 5338,072;  251,198; 8409,849;62,34945
 605,61; 6069,661;  886,216; 8933,274;64,41416
 606,19; 5256,727;  217,205; 8451,477;61,20180
 606,77; 6270,760; 1275,199; 9347,578;61,88462
 607,35; 4766,905; -145,799; 8371,799;57,67710
 607,93; 5041,283;  208,197; 8505,120;58,25154
 608,50; 5925,772; 1033,208; 9450,409;58,12578
 609,08; 5423,727;  479,197; 8944,629;58,40848
 609,66; 6755,994; 1832,196;10164,392;59,09364
 610,24; 6199,117; 1341,232; 9622,463;58,66138
 610,82; 4954,872;  170,218; 8821,970;55,30272
 611,40; 6202,316; 1575,218; 9909,479;55,51900
 611,97; 4843,072;  232,200; 8566,562;55,32363
 612,55; 4546,516; -115,802; 8516,357;54,01103
 613,13; 5796,538; 1137,190; 9391,764;56,44566
 613,71; 6189,205; 1377,201;10042,799;55,52997
 614,29; 5556,794;  932,206; 9495,951;54,00193
 614,87; 5362,416;  678,194; 9314,934;54,23600
 615,44; 5886,683; 1186,203; 9991,256;53,38389
 616,02; 4906,927;  245,213; 9077,325;52,78142
 616,60; 4974,427;  239,197; 9185,629;52,92870
 617,18; 6033,460; 1084,187;10194,306;54,32720
 617,76; 6076,039; 1233,206;10227,460;53,84363
 618,33; 5083,905;  211,197; 9417,374;52,92868
 618,91; 6040,316; 1185,186;10380,085;52,80243
 619,49; 6659,460; 1732,199;10863,578;53,95966
 620,07; 6071,949; 1196,203;10467,019;52,59242
 620,64; 5624,482;  789,191;10076,984;52,06071
 621,22; 4727,360; -137,799; 9253,290;51,80612
 621,80; 5285,683;  329,197; 9819,120;52,22893
 622,38; 6997,572; 1932,200;11361,562;53,71914
 622,95; 5983,494;  956,192;10387,967;53,30176
 623,53; 4914,294;   -6,786; 9229,800;53,27813
 624,11; 5579,516;  551,210;10034,630;53,02208
 624,69; 5061,505;  233,197; 9683,374;51,09225
 625,26; 5160,950;  126,225; 9828,852;51,89033
 625,84; 5192,705;  262,203;10034,511;50,45382
 626,42; 5537,772;  617,220;10203,682;51,32813
 627,00; 5883,562; 1008,240;10643,819;50,59708
 627,57; 6238,028; 1155,237;10909,870;52,10643
 628,15; 5059,383;  -96,801; 9895,832;51,59985
 628,73; 6465,572; 1325,206;11219,697;51,95179
 629,31; 5691,895;  673,226;10464,072;51,25878
 629,88; 6069,061;  842,195;10808,154;52,44719
 630,46; 5106,438; -223,792; 9777,172;53,29717
 631,04; 5864,472;  512,216;10721,258;52,42662
 631,61; 5774,583;  589,197;10911,120;50,23662
 632,19; 5020,349; -158,808;10093,459;50,51719
 632,77; 5647,483;  451,225;10747,089;50,46938
 633,34; 5413,894;  108,208;10409,663;51,50424
 633,92; 6190,983;  822,213;11260,816;51,43188
 634,50; 5525,995;  121,232;10761,208;50,79675
 635,08; 7122,972; 1781,233;12031,954;52,11086
 635,65; 6288,794;  790,200;11303,815;52,29974
 636,23; 5926,427;  428,207;11178,188;51,14632
 636,81; 7083,005; 1479,207;12031,935;53,10284
 637,38; 5350,271; -246,794;10663,697;51,29985
 637,96; 5401,339; -144,774;10701,580;51,13343
 638,54; 6749,627; 1145,221;11952,173;51,85927
 639,11; 5927,038;  224,194;11106,188;52,40625
 639,69; 7505,627; 1730,185;12701,356;52,64198
 640,26; 5878,983;  209,212;11336,190;50,95518
 640,84; 6529,193;  874,212;11918,430;51,20310
 641,42; 5830,403;  217,212;11368,670;50,33594
 641,99; 5894,313;   82,211;11504,910;50,88203
 642,57; 6330,823;  481,211;11851,150;51,44805
 643,15; 7317,133; 1585,211;12984,391;50,28363
 643,72; 5574,542; -182,789;11453,630;49,47683
 644,30; 5866,852;   91,211;11502,870;50,61176
 644,87; 6708,162;  777,210;11939,110;53,13568
 645,45; 5782,472; -212,790;11348,351;51,85701
 646,03; 7162,382; 1097,210;12803,591;51,81082
 646,60; 7386,892; 1491,210;12877,830;51,77728
 647,18; 5942,201;  198,210;11679,070;50,03102
 647,75; 6248,711;  217,209;11963,311;51,34897
 648,33; 6142,521;    8,209;11837,551;51,85675
 648,91; 5821,531; -250,791;11505,790;51,65041
 649,48; 6349,341;   38,209;12123,030;52,22363
 650,06; 6797,750;  363,209;12865,271;51,46785
 650,63; 6626,260;   -4,792;12531,511;52,89480
 651,21; 7357,270;  858,208;13410,751;51,77486
 651,79; 7832,580; 1101,208;13810,990;52,96214
 652,36; 7520,090;  789,208;13226,230;54,11972
 652,94; 7065,700;  264,207;13105,471;52,96591
 653,51; 6787,009;  178,207;12770,711;52,48203
 654,09; 7470,919;  755,207;13657,951;52,04871
 654,66; 7363,829;  591,207;13344,190;53,10618
 655,24; 7443,339;  399,207;13340,431;54,43173
 655,81; 8243,448; 1080,206;14347,671;53,99104
 656,39; 7629,559;  339,206;13644,911;54,79118
 656,96; 7284,968;   50,206;13616,151;53,33032
 657,54; 8581,578; 1296,206;14563,391;54,91272
 658,11; 7769,088;  518,206;14047,631;53,59342
 658,69; 7707,098;  618,205;13833,871;53,64007
 659,27; 8235,907;  806,205;14300,111;55,05968
 659,84; 8708,718; 1189,205;14908,352;54,81035
 660,42; 7649,127;   56,205;13719,591;55,57131
 660,99; 7539,437; -252,796;13703,831;55,83178
 661,57; 8604,947;  667,204;14589,071;57,01637
 662,14; 9071,057;  943,204;14866,312;58,37671
 662,72; 7892,066; -356,796;13794,552;58,29030
 663,29; 8395,977;   22,204;14200,791;59,05929
 663,87; 8264,786; -263,797;14141,031;59,20642
 664,44; 9890,896; 1122,203;15279,271;61,93862
 665,01; 9379,706;  394,203;14894,512;61,96767
 665,59; 9158,115;  150,203;14726,751;61,79729
 666,16; 8945,525;  -80,797;14567,991;61,61822
 666,74; 9319,936;  178,202;14882,231;62,17162
 667,31; 9706,245;   87,202;15423,472;62,72088
 667,89;10260,255;  369,202;16004,712;63,26019
 668,46;11487,465; 1387,202;16986,951;64,74632
 669,04;11437,675; 1180,202;16958,191;65,01128
 669,61;11025,584;  301,201;16425,432;66,51097
 670,19;11424,094;  112,201;16563,672;68,75916
 670,76;11666,304;  -86,799;16468,912;70,99123
 671,33;11966,313;  -39,799;16690,152;71,76418
 671,91;13820,323; 1450,200;18059,393;74,47757
 672,48;12864,233;  339,200;17255,631;74,04064
 673,06;13481,644;  850,200;17920,871;73,99500
 673,63;12924,153;  225,200;17303,111;74,35894
 674,21;12718,063; -385,800;17024,352;75,26564
 674,78;13768,973;  731,199;17734,592;76,67748
 675,35;13707,883;  524,199;17614,832;77,13982
 675,93;14907,692; 1321,199;18684,072;78,25026
 676,50;14175,603;  263,199;17875,313;78,99338
 677,08;14123,312;  -18,801;17701,553;79,80717
 677,65;13921,222;  -95,802;17340,793;80,38854
 678,22;14504,031;  346,198;17881,031;80,74119
 678,80;14219,541; -342,802;17830,271;80,13143
 679,37;15182,151;  -99,802;18453,512;82,36778
 679,94;15541,062;   25,198;18590,752;83,57339
 680,52;16283,271;  654,197;19738,992;81,89280
 681,09;16474,281;  653,197;19991,232;81,81330
 681,67;17090,590; 1035,197;20141,473;84,03204
 682,24;17034,701;  748,197;20003,713;84,58098
 682,81;16611,811;  -68,804;19703,953;84,36160
 683,39;16878,619;   -6,804;20134,193;83,83608
 683,96;17545,330;  217,196;20332,432;86,14433
 684,53;18502,439;  926,196;21685,672;84,66612
 685,11;18207,150;  634,196;21570,912;83,93367
 685,68;18030,160;  302,195;21535,152;83,49268
 686,25;18029,670;    7,195;21304,393;84,62369
 686,83;18731,879;  525,195;21821,633;85,49169
 687,40;18702,189;  597,195;21880,873;85,06516
 687,97;18541,398;  561,195;22011,113;83,82411
 688,55;18085,508;    7,194;21893,354;82,60158
 689,12;18308,318;  324,194;21918,592;83,28143
 689,69;19185,527; 1173,194;22600,832;84,06122
 690,27;18411,838;   45,194;21975,072;83,75169
 690,84;18210,148; -358,806;21988,313;83,09328
 691,41;19564,957;  896,193;23315,553;83,27073
 691,98;19703,668;  968,193;23383,793;83,58230
 692,56;19362,576;  639,193;23259,033;82,77416
 693,13;18560,887; -292,807;22724,273;81,91175
 693,70;19584,896;  609,192;23383,514;83,32061
 694,28;19177,906;  330,192;23090,754;82,80865
 694,85;18853,217;  -69,808;22664,992;83,23374
 695,42;19391,127;   98,192;23273,232;83,24877
 695,99;20212,035;  730,192;23925,473;83,99055
 696,57;19968,846;    9,191;23357,713;85,48573
 697,14;20718,057;  397,191;24142,953;85,57681
 697,71;20491,965;  111,191;24038,193;85,17897
 698,28;21298,875;  615,191;24712,434;85,83424
 698,86;22928,484; 2017,191;26388,674;85,80230
 699,43;21803,795;  707,190;25336,914;85,65506
 700,00;21333,504;  347,190;25440,154;83,63426
 700,57;20676,615; -393,810;24893,393;83,32446
 701,15;21651,324;  626,190;25706,633;83,83079
 701,72;20848,035; -142,811;24530,873;85,07382
 702,29;22113,045;  748,189;25831,113;85,17689
 702,86;21270,254; -417,811;24991,354;85,35529
 703,43;22707,164;  857,189;26205,594;86,19862
 704,01;21570,973;  -50,811;25402,834;84,94573
 704,58;21460,383; -442,812;25445,074;84,60789
 705,15;22975,793;  762,188;26827,314;85,22347
 705,72;22126,902; -392,812;25993,553;85,34603
 706,29;22764,813;  193,188;26592,793;85,49986
 706,87;23004,523;  317,188;26691,033;86,02210
 707,44;23135,133;  353,187;26770,273;86,23943
 708,01;23235,242;  235,187;26697,514;86,91622
 708,58;23117,951; -287,813;26620,754;86,98257
 709,15;23549,662; -436,813;26978,994;87,49141
 709,72;25169,771; 1259,187;28564,234;87,56837
 710,30;24790,982;  525,186;27595,475;89,63996
 710,87;23538,492; -449,814;26745,715;88,20680
 711,44;23909,900;  -83,814;27158,953;88,07371
 712,01;23930,711;  -87,814;27346,193;87,55019
 712,58;24136,920; -339,815;27707,434;87,26965
 713,15;25357,031;  355,185;28760,674;88,01766
 713,73;25661,441;  265,185;28717,914;89,25772
 714,30;25991,250;  522,185;28795,154;90,08274
 714,87;26179,760;  446,185;29830,395;87,57620
 715,44;25904,869;  -91,816;29765,635;87,06934
 716,01;26316,879;  704,184;30375,875;86,32031
 716,58;26097,689;  421,184;29987,115;86,84491
 717,15;27946,699; 2039,184;31157,354;88,97371
 717,72;26243,809; -116,816;29805,594;88,09660
 718,30;26640,318; -445,817;30532,834;87,43484
 718,87;27125,029;  240,183;31250,074;86,69765
 719,44;26861,139;  187,183;31618,314;84,86476
 720,01;26514,049;  246,183;30963,555;85,51469
 720,58;27263,258; 1142,182;31339,795;86,50047
 721,15;26228,469; -338,818;30347,035;86,57829
 721,72;26663,578;  254,182;31020,275;85,83929
 722,29;27031,787;  596,182;31010,514;86,91825
 722,86;26842,498;  265,182;31034,754;86,37532
 723,43;27707,508;  933,181;31838,994;86,63201
 724,00;27431,418;  639,181;31923,234;85,64183
 724,57;27551,027;  685,181;31759,475;86,45682
 725,14;27122,137;  174,181;31614,715;85,71087
 725,72;27631,447;  223,181;31672,955;87,14933
 726,29;28167,656;  461,180;32321,195;86,96316
 726,86;29086,666; 1246,180;33211,434;87,09609
 727,43;29032,076;  785,180;33191,676;87,16430
 728,00;28828,387;  209,180;32743,914;87,96509
 728,57;29814,996;  814,180;33819,156;87,86801
 729,14;29208,305; -104,821;32887,395;88,84861
 729,71;29509,215;  615,179;33030,637;89,13660
 730,28;29761,125;  939,179;33184,875;89,38230
 730,85;29773,836;  767,179;32919,113;90,21746
 731,42;29398,744; -112,822;32828,355;89,58868
 731,99;29416,955;   28,178;33004,594;89,12059
 732,56;30385,564; 1352,178;34310,836;88,09032
 733,13;29567,475;  358,178;33524,074;88,07028
 733,70;30000,783;  610,178;33965,316;88,11418
 734,27;29475,594;  152,177;33745,555;87,28928
 734,84;28409,604; -409,823;32455,795;87,68868
 735,41;29538,314;  812,177;33187,035;88,72977
 735,98;29297,824;  307,177;32928,277;88,87084
 736,55;28892,133; -488,823;32850,516;88,12699
 737,12;29700,443; -187,824;33850,754;87,80704
 737,69;29976,953;  191,176;34513,996;86,78126
 738,26;29962,563; -115,824;34224,234;87,58979
 738,83;30468,973;  236,176;34912,477;87,18576
 739,40;30681,283;  208,176;35043,715;87,47707
 739,97;30596,793;  214,175;35013,957;87,30692
 740,53;31292,701;  604,175;35182,195;88,75154
 741,10;31505,711;  784,175;35705,438;87,97373
 741,67;31220,621;  322,175;35141,676;88,73891
 742,24;31509,832;  338,174;35070,914;89,74719
 742,81;31040,141; -446,826;34490,156;90,12503
 743,38;33166,949; 1540,174;36376,395;90,78705
 743,95;31717,160;  300,174;35672,637;88,81764
 744,52;32331,471;  963,174;36166,875;89,10511
 745,09;31338,781; -184,827;35291,117;88,85911
 745,66;32395,189;  853,173;36085,355;89,52615
 746,23;32412,699;  662,173;35910,598;90,07644
 746,80;33011,910; 1280,173;36412,836;90,31976
 747,36;32785,418;  664,173;36588,074;89,41469
 747,93;32332,430;   74,172;35684,316;90,58727
 748,50;32166,139; -124,828;35757,555;89,99114
 749,07;32184,449;  233,172;36213,797;88,80134
 749,64;31739,658;  -63,828;35665,035;89,01343
 750,21;33286,270; 1148,172;37313,277;88,86494
 750,78;32706,979; -128,829;36985,516;88,47201
 751,35;33978,887;  632,171;37877,758;89,53199
 751,92;33366,500;  -64,829;37319,996;89,42486
 752,48;32807,207; -425,829;36868,238;89,11078
 753,05;33277,719;  116,170;36896,477;90,16115
 753,62;34467,629;  876,170;38522,715;89,22853
 754,19;34540,238; 1012,170;38388,957;89,70292
 754,76;34727,746; 1078,170;38710,195;89,41739
 755,33;33136,457; -402,830;37254,438;89,06458
 755,89;34687,168; 1118,169;38932,676;88,77281
 756,46;33999,977;  238,169;38011,918;89,37902
 757,03;34060,586;  346,169;38167,156;89,14209
 757,60;33121,898; -244,831;37677,398;87,98726
 758,17;33492,305;  401,169;38075,637;87,83438
 758,74;33981,316;  993,168;38432,875;88,11006
 759,30;33121,824; -440,832;37495,117;88,47190
 759,87;33559,734;  345,168;38042,355;88,10887
 760,44;34392,445; 1056,168;38677,598;88,60981
 761,01;33569,957;  227,167;37864,836;88,58888
 761,58;34382,164;  785,167;38800,078;88,37847
 762,14;34171,375;  318,167;38501,316;88,66007
 762,71;33824,484;   43,167;38240,559;88,43881
 763,28;34088,496;  774,167;38868,797;87,45151
 763,85;32867,004; -387,834;37746,035;87,20552
 764,41;33631,215;  255,166;38540,277;87,17762
 764,98;34293,625;  261,166;38932,516;88,00432
 765,55;33536,633; -479,834;38252,758;87,82388
 766,12;34470,344;  587,166;38976,996;88,26082
 766,69;34283,855;  294,165;38795,238;88,28245
 767,25;35156,465; 1070,165;39850,477;87,89589
 767,82;34602,473;  369,165;39044,719;88,51407
 768,39;34184,383;  -37,835;38916,957;87,85111
 768,95;33678,293; -135,835;38329,199;87,90874
 769,52;33671,402;  255,164;37720,438;89,19256
 770,09;33770,613; 1049,164;37492,676;89,78676
 770,66;35449,621; 2247,164;38633,918;91,24875
 771,22;34357,031; 1107,164;37942,156;90,26707
 771,79;34130,441; 1220,163;38258,398;88,85488
 772,36;33126,352;  840,163;37767,637;87,43135
 772,93;32039,262;  -22,837;36949,879;86,71827
 773,49;32819,871;  892,163;37893,117;86,28888
 774,06;32435,182;  200,163;37559,359;86,28403
 774,63;32516,691;  210,162;37319,598;87,05745
 775,19;31958,102;  104,162;36637,836;87,19063
 775,76;31268,111;  179,162;35855,078;87,14268
 776,33;31026,820; -161,838;35575,316;87,27236
 776,89;32230,730;  632,162;36276,559;88,64947
 777,46;32155,340;  167,161;36432,797;88,20521
 778,03;32834,852;  480,161;36954,039;88,70647
 778,59;31600,160; -535,839;36112,277;87,68800
 779,16;32200,270;  -96,839;36426,520;88,42864
 779,73;32779,078;  426,161;37225,758;87,91650
 780,29;33438,988;  438,160;37611,996;88,77434
 780,86;33246,801;  104,160;37630,238;88,31896
 781,43;33721,309; 1006,160;38107,477;88,17786
 781,99;32417,818; -105,840;37122,719;87,36212
 782,56;32777,730;  355,159;37526,957;87,22358
 783,13;32608,438;  443,159;37334,199;87,18995
 783,69;32187,348; -107,841;37187,438;86,59324
 784,26;32304,758; -178,841;36771,680;87,91107
 784,82;32793,270;  283,159;37705,918;86,87256
 785,39;32193,777; -469,842;37192,160;86,72831
 785,96;33013,188;  212,158;37901,398;87,03022
 786,52;32988,199;  296,158;37398,637;88,11282
 787,09;32231,807;   91,158;36156,879;89,11689
 787,65;31225,217; -307,842;35240,117;88,70568
 788,22;31679,326;  539,157;35829,359;88,24027
 788,79;32006,137;  596,157;36385,598;87,76326
 789,35;31738,846;  -27,843;36034,840;88,08743
 789,92;31564,457; -139,843;36150,078;87,36393
 790,48;31558,666;  174,157;36095,320;87,37053
 791,05;31474,875;  464,156;35938,559;87,41717
 791,62;31691,986;  940,156;35928,797;87,89090
 792,18;31415,695;  334,156;35381,039;88,68560
 792,75;31034,506;  -53,844;35081,277;88,48226
 793,31;30993,615; -168,845;34685,520;89,40763
 793,88;32499,525; 1212,155;35729,758;90,64178
 794,44;31582,936;   96,155;35169,000;89,77538
 795,01;31963,244;  563,155;36099,238;88,36114
 795,57;30950,055;  133,155;35481,480;87,18065
 796,14;30861,863;  718,154;35375,719;86,97584
 796,70;29395,773; -465,846;33879,957;86,94401
 797,27;30377,385;  864,154;33903,199;89,32834
 797,83;30036,994;  -45,846;33360,438;90,05144
 798,40;30882,404;  209,154;34351,680;89,83884
 798,97;30975,313;   95,153;34736,918;89,14141
 799,53;30869,023; -238,847;35025,160;88,21422
 800,10;30831,633; -475,847;34619,398;89,20718
 800,66;31406,742;  243,153;35471,641;88,46133
 801,23;31444,354;  279,152;35389,879;88,76262
 801,79;33661,063; 2528,152;37692,121;88,53639
 802,35;31659,373;  371,152;35698,359;88,56692
 802,92;31558,781;  258,152;35533,598;88,73206
 803,48;31151,291;  244,152;35273,840;88,23127
 804,05;30935,201;  572,151;35093,078;87,95549
 804,61;31535,111; 1040,151;36328,320;86,41695
 805,18;31087,721;  282,151;35757,559;86,83641
 805,74;31925,332;  831,151;36059,801;88,26390
 806,31;31537,141;  230,151;35712,039;88,23372
 806,87;33208,152; 2274,150;37201,281;88,56726
 807,44;30087,361; -279,850;34687,520;86,84443
 808,00;31199,471;  977,150;36061,758;86,14125
 808,57;31023,281;  522,150;35515,000;87,16390
 809,13;34133,090; 3597,149;38157,238;88,35608
 809,69;30529,301;  485,149;34930,480;87,22271
 810,26;31601,311; 1912,149;36105,719;86,82674
 810,82;29189,619; -488,851;34068,961;85,88064
 811,39;30523,729;  927,149;34849,199;87,24879
 811,95;31532,039; 1787,148;35682,441;87,75523
 812,51;29631,648;  -78,852;34003,680;87,17222
 813,08;29261,260;  -11,852;33704,918;86,82063
 813,64;29148,770;   10,148;33295,160;87,54277
 814,21;30591,078; 1972,148;34947,398;86,78912
 814,77;32236,289; 3352,147;36741,641;86,50668
 815,33;29540,498;  189,147;34550,879;85,41872
 815,90;29228,309;  160,147;33413,121;87,41522
 816,46;29259,318;  351,147;33782,359;86,47060
 817,03;29037,428;  222,147;33530,602;86,51041
 817,59;29775,738; 1274,146;34357,840;86,14997
 818,15;30057,248; 1287,146;33843,082;88,37129
 818,72;30094,156;  750,146;33646,320;89,20189
 819,28;29710,768;  268,146;33048,559;89,81773
 819,84;31098,377; 1659,146;34316,801;90,14496
 820,41;28972,086;  -88,855;32675,041;88,69806
 820,97;29336,096;  776,145;33065,281;88,45065
 821,53;28221,506; -146,855;32321,520;87,37229
 822,10;29215,416;  976,145;33062,762;88,00950
 822,66;28609,025;  330,144;32549,000;87,77121
 823,22;27661,736; -197,856;31802,240;87,06096
 823,79;30585,445; 2562,144;34073,480;88,93086
 824,35;27845,154;  -72,856;31571,721;88,22368
 824,91;27561,465; -137,856;31445,961;87,70099
 825,48;28273,775; 1003,143;31765,201;88,65022
 826,04;27913,584;  949,143;31448,441;88,41004
 826,60;27406,494;  357,143;31057,680;88,10710
 827,17;27298,705;  552,143;31352,920;86,83730
 827,73;26311,215; -452,857;30716,160;85,86755
 828,29;26839,523; -171,858;31126,400;86,30315
 828,85;27764,133;  207,142;31829,641;87,14362
 829,42;29404,443; 1679,142;33426,879;87,33001
 829,98;29092,354;  958,142;32898,121;88,08463
 830,54;29065,664;  972,141;33246,359;87,04633
 831,11;27967,873;  -95,859;32137,602;87,06397
 831,67;27847,582; -165,859;31728,842;87,83102
 832,23;27983,092;  -55,859;31752,080;88,15079
 832,79;27957,703;   33,141;31171,320;89,67950
 833,36;28649,912;  972,140;31655,561;90,20432
 833,92;27262,123;   -5,860;30271,801;90,05974
 834,48;27349,133;  319,140;30381,041;89,91445
 835,04;26420,742;  -93,860;29917,281;88,34920
 835,60;26975,451;  679,140;30828,521;87,22007
 836,17;26862,061;  498,139;30842,762;86,88169
 836,73;25919,771; -322,861;29991,002;86,56974
 837,29;25578,381; -127,861;29798,240;85,89907
 837,85;26290,191;  753,139;30312,480;86,39249
 838,42;24862,500; -429,861;29053,721;85,78456
 838,98;25174,111; -372,862;29204,961;86,37205
 839,54;25572,420; -292,862;29183,201;87,75012
 840,10;26692,330;  542,138;30181,441;88,22809
 840,66;26337,740;  429,138;29786,682;88,25194
 841,23;26527,750;  523,137;29890,922;88,54809
 841,79;26366,561;  560,137;30045,162;87,52383
 842,35;27133,570; 1218,137;30820,402;87,54544
 842,91;25446,080;  175,137;29423,641;86,40081
 843,47;25840,789;  267,137;29961,881;86,12181
 844,03;24867,799; -255,864;28994,121;85,89291
 844,60;24640,609; -139,864;28721,361;85,86078
 845,16;24168,219; -538,864;27811,602;87,14877
 845,72;24789,129;   30,136;28322,842;87,51016
 846,28;25115,039; -217,864;28458,082;88,34200
 846,84;25738,248;   94,135;28806,322;89,31438
 847,40;26505,059;  662,135;30122,563;87,72080
 847,96;25646,768;  -70,865;29557,803;86,79983
 848,53;25506,578;  -74,865;29381,041;86,84657
 849,09;25476,688; -152,865;29493,281;86,45155
 849,65;26290,396;  527,134;30107,521;87,09576
 850,21;26002,807;  227,134;30015,762;86,52857
 850,77;26011,617;  207,134;30445,002;85,33830
 851,33;26165,426;  575,134;29997,242;86,97640
 851,89;27578,537; 2170,134;31409,482;86,89798
 852,45;25243,146; -131,867;29146,723;86,66747
 853,01;25578,156;  274,133;29150,963;87,62743
 853,57;25587,865;  264,133;28993,201;88,14672
 854,14;24824,775; -453,867;28613,441;86,96589
 854,70;25339,986; -104,868;28753,682;88,17094
 855,26;25251,895;  120,132;28300,922;89,18048
 855,82;25038,404;  -32,868;28121,162;89,05039
 856,38;25574,814;  314,132;28864,402;88,47791
 856,94;26265,125;  739,132;29350,643;89,21582
 857,50;26326,635;  162,131;29526,883;89,10174
 858,06;26321,344; -425,869;29638,123;88,96760
 858,62;26935,854;  -85,869;29970,363;89,90389
 859,18;27601,064;  591,131;30632,602;89,90883
 859,74;27200,373;  144,130;30513,842;89,08956
 860,30;26776,984;  287,130;30568,082;87,48026
 860,86;26130,793;  -56,870;29845,322;87,57774
 861,42;25819,104; -430,870;29865,563;86,64378
 861,98;26705,514;  382,130;30672,803;86,90261
 862,54;25846,723; -349,871;30050,043;86,17325
 863,10;26636,232;  604,129;30437,283;87,25897
 863,66;25781,143; -167,871;29551,523;87,31340
 864,22;26728,852;  709,129;30667,764;86,85216
 864,78;26359,063;   15,129;30102,002;87,55956
 865,34;26469,871;  -70,872;30414,242;87,06132
 865,90;26614,482;  358,128;30696,482;86,54508
 866,46;26372,191;  262,128;30207,723;87,19167
 867,02;28120,801; 2357,128;31319,963;88,95425
 867,58;25356,611; -171,872;28399,203;89,35080
 868,14;26784,021; 1469,127;29711,443;89,63463
 868,70;26319,031;  961,127;29460,684;88,97649
 869,26;26234,840;  767,127;29423,924;88,87146
 869,82;25338,650; -190,873;28772,162;88,14519
 870,38;24758,961; -555,874;28414,402;87,38210
 870,94;26285,770; 1293,126;29364,643;89,03204
 871,50;24553,279; -478,874;27970,883;87,98723
 872,06;24707,689; -305,874;28335,123;87,33482
 872,62;24900,799; -218,874;28165,363;88,49867
 873,18;24893,809;  -99,875;28012,604;88,90601
 873,74;26041,619; 1005,125;28881,844;89,81148
 874,29;25472,229;  601,125;28613,084;88,78745
 874,85;24497,629;  -90,875;27865,084;87,95443
 875,41;24468,430;    1,125;28668,084;85,35019
 875,97;24886,330;  342,125;28867,084;86,04466
 876,53;25413,830;  699,125;29298,084;86,41820
 877,09;25469,729;  515,125;29189,084;87,02880
 877,65;26124,830; 1365,125;29863,084;86,88238
 878,21;24653,729;  235,125;28761,084;85,60134
 878,77;24199,229;  229,125;28248,084;85,54959
 879,33;23859,029;  332,125;28112,084;84,69021
 879,88;23546,029;    6,125;27635,084;85,20011
 880,44;24130,129;  211,125;27472,084;87,74087
 881,00;24170,529; -155,875;27645,084;87,50203
 881,56;24662,129;  -64,875;27873,084;88,50684
 882,12;26035,330; 1384,125;29553,084;87,51195
 882,68;24861,029;  309,125;28566,084;86,88799
 883,24;25076,029;  738,125;28969,084;86,20998
 883,79;25761,129; 1468,125;29419,084;86,91295
 884,35;25474,629; 1002,125;29029,084;87,31773
 884,91;24162,930; -395,875;27741,084;87,28308
 885,47;25295,629;  641,125;28568,084;88,28209
 886,03;25098,830;  587,125;28347,084;88,29878
 886,59;24332,529;  -43,875;27882,084;87,28941
 887,14;25554,930;  989,125;28221,084;90,20947
 887,70;24357,529; -543,875;27279,084;89,49948
 888,26;26310,029; 1055,125;29515,084;88,73837
 888,82;25885,529;  330,125;29094,084;88,84523
 889,38;26393,629;  910,125;30000,084;87,60241
 889,93;25378,629;  299,125;29257,084;86,60660
 890,49;24605,430; -431,875;28826,084;85,57434
 891,05;24659,029; -221,875;28576,084;86,39815
 891,61;25382,729;  293,125;29278,084;86,56077
 892,17;26152,430;  573,125;29735,084;87,71463
 892,72;25849,830; -249,875;29601,084;87,43339
 893,28;26591,229;  192,125;29996,084;88,57583
 893,84;26030,430; -438,875;30231,084;86,30368
 894,40;26757,330;  619,125;30924,084;86,25059
 894,95;25469,029; -370,875;30054,084;84,92996
 895,51;25817,430;  173,125;30517,084;84,51206
 896,07;25829,529;   32,125;30031,084;85,99433
 896,63;26111,129; -372,875;30206,084;86,60859
 897,18;27356,430;  422,125;30885,084;88,41657
 897,74;27582,629;  237,125;30814,084;89,43173
 898,30;27015,129; -402,875;30823,084;87,80516
 898,85;27595,330;  304,125;31242,084;88,21269
 899,41;27888,629;  816,125;32248,084;86,13050
 899,97;26633,830; -432,875;31149,084;85,70306
 900,53;27101,029;  367,125;31564,084;85,69394
 901,08;26659,529; -352,875;30990,084;86,18333
 901,64;27393,629;  630,125;31470,084;86,78190
 902,20;26636,330;  -43,875;30387,084;87,67455
 902,75;26499,430;  214,125;30281,084;87,42256
 903,31;26053,729;  -71,875;30069,084;86,67808
 903,87;26025,229; -149,875;29678,084;87,75359
 904,42;26881,529;  697,125;30516,084;87,81126
 904,98;26838,930;  468,125;30484,084;87,85595
 905,54;26794,830;  237,125;29915,084;89,48629
 906,09;26862,129;  148,125;29961,084;89,60534
 906,65;26399,229; -422,875;29528,084;89,55340
 907,21;27513,330;  501,125;30651,084;89,59284
 907,76;27070,729; -159,875;30371,084;89,19013
 908,32;27315,930;   79,125;30910,084;88,34239
 908,88;26976,029;  -29,875;30865,084;87,41201
 909,43;27852,930;  947,125;32029,084;86,56406
 909,99;26631,830;  217,125;30780,084;86,42718
 910,54;26083,129;  266,125;30012,084;86,79163
 911,10;26535,430; 1234,125;30842,084;85,45440
 911,66;26516,330; 1881,125;30415,084;86,33644
 912,21;25077,629;  402,125;29227,084;85,60465
 912,77;24492,629;  -52,875;28999,084;84,48829
 913,33;25562,430;  923,125;29583,084;85,97118
 913,88;24645,129;  321,125;29042,084;84,69078
 914,44;23614,229; -412,875;27778,084;85,22982
 914,99;23552,029; -102,875;27782,084;84,83034
 915,55;23995,629;  382,125;28046,084;85,35837
 916,10;23830,229;  286,125;27888,084;85,29867
 916,66;24123,229;  591,125;28144,084;85,40681
 917,22;23010,930; -127,875;27052,084;85,13186
 917,77;22767,930; -576,875;26664,084;85,69744
 918,33;24206,129;  977,125;27704,084;86,91226
 918,88;23409,229;  373,125;26913,084;86,79781
 919,44;22911,830;  200,125;26201,084;87,34949
 919,99;23242,330;  500,125;26839,084;86,34436
 920,55;23811,430; 1046,125;27523,084;85,98157
 921,10;22778,629;   55,125;26499,084;85,93079
 921,66;23097,930;  479,125;27115,084;84,91830
 922,21;22823,629;  142,125;26543,084;85,91167
 922,77;23436,430;  608,125;26988,084;86,53654
 923,32;24852,629; 1913,125;28022,084;87,86066
 923,88;24118,830; 1020,125;27462,084;87,35625
 924,43;23919,430;  480,125;27398,084;87,07683
 924,99;23820,729;  409,125;27528,084;86,32929
 925,54;23340,229;    6,125;27181,084;85,86620
 926,10;22838,830; -388,875;26676,084;85,82206
 926,65;23364,129;  976,125;27112,084;85,65978
 927,21;22820,529; 1062,125;26088,084;86,94334
 927,76;22015,229;  495,125;24869,084;88,29137
 928,32;20481,529; -510,875;23803,084;86,33890
 928,87;21105,529;  270,125;24071,084;87,54019
 929,43;21130,830;  266,125;24323,084;86,73043
 929,98;20849,830;  -70,875;24129,084;86,44934
 930,54;21211,430;   58,125;24901,084;85,14809
 931,09;20820,629; -202,875;24576,084;84,84418
 931,65;21237,629;  255,125;24920,084;85,07009
 932,20;21358,729;  581,125;25142,084;84,59606
 932,76;21036,330;  539,125;24811,084;84,44809
 933,31;21236,529;  827,125;24895,084;84,79907
 933,86;20623,330;  395,125;24305,084;84,60159
 934,42;20136,330;  -99,875;23773,084;84,76622
 934,97;19729,129;  -72,875;23238,084;84,94719
 935,53;19314,430;  270,125;22788,084;84,57385
 936,08;18350,930;   78,125;22024,084;83,26273
 936,63;17092,529; -143,875;20319,084;84,23222
 937,19;17671,430; 1148,125;20579,084;85,03597
 937,74;16128,129;  142,125;18882,084;85,30437
 938,30;15804,529;  543,125;18475,084;85,10729
 938,85;14585,129; -130,875;17021,084;85,79780
 939,40;15319,229; 1008,125;17648,084;86,00445
 939,96;14396,129;  500,125;16556,084;86,54733
 940,51;13533,729;  245,125;15610,083;86,48644
 941,06;13890,129;  824,125;15498,083;89,04212
 941,62;13296,529;  533,125;15015,083;88,13314
 942,17;13250,229;  876,125;14799,083;88,87554
 942,73;14477,229; 2028,125;15647,083;91,41011
 943,28;12344,529; -276,875;13882,083;89,14077
 943,83;12967,329;  358,125;14644,083;88,26292
 944,39;12498,029;  -32,875;14318,083;87,31755
 944,94;12814,829;  354,125;14758,083;86,50889
 945,49;14677,229; 2352,125;16522,084;86,98052
 946,05;11770,529; -449,875;13670,083;86,54703
 946,60;12948,529;  671,125;14827,083;86,72959
 947,15;12172,329; -359,875;14212,083;86,00220
 947,70;13098,229;  289,125;15112,083;86,41396
 948,26;13328,729;  158,125;15040,083;88,50048
 948,81;13074,129; -144,875;15144,083;86,46112
 949,36;13193,929;  -61,875;15454,083;85,43336
 949,92;13823,129;  712,125;16219,083;84,54917
 950,47;13770,729;  335,125;16029,083;85,61004
 951,02;13773,229;  409,125;16095,083;85,19789
 951,57;15065,829; 1198,125;17227,084;86,51656
 952,13;15106,329; 1147,125;17250,084;86,68720
 952,68;15158,129;  824,125;17338,084;86,79932
 953,23;16645,430; 1760,125;18619,084;88,29314
 953,79;15753,129;  613,125;17938,084;87,38840
 954,34;15530,829;  277,125;17500,084;88,56611
 954,89;15334,429;  -91,875;17368,084;88,35246
 955,44;15643,729;  174,125;17400,084;89,80402
 955,99;16164,829;  550,125;17818,084;90,42588
 956,55;16176,129;  275,125;17960,084;89,91259
 957,10;16123,029;   85,125;17817,084;90,44632
 957,65;16294,829;  242,125;18363,084;88,58639
 958,20;16395,229;  357,125;18685,084;87,50622
 958,76;16702,229;  769,125;19056,084;87,12823
 959,31;16463,430;  712,125;19055,084;85,87112
 959,86;15513,429; -360,875;18163,084;85,69606
 960,41;15870,729;   41,125;18526,084;85,63505
 960,96;19573,930; 3647,125;22317,084;85,30712
 961,52;15825,429; -248,875;19007,084;83,47704
 962,07;16703,729;  730,125;19274,084;86,13912
 962,62;16613,129;  664,125;19256,084;85,78442
 963,17;16117,829;  403,125;18552,084;86,58736
 963,72;15303,629; -325,875;17745,084;86,48962
 964,27;15992,129;  452,125;18162,084;87,74726
 964,83;15276,029; -462,875;17516,084;87,54069
 965,38;15915,129;  -81,875;18281,084;87,11561
 965,93;16572,330;  354,125;18941,084;87,25583
 966,48;16832,229;  261,125;19467,084;86,28105
 967,03;17682,930; 1076,125;20266,084;86,53903
 967,58;17349,529;  719,125;20487,084;84,12808
 968,13;16918,330;  551,125;20179,084;83,38720
 968,69;18639,029; 2483,125;21657,084;84,25962
 969,24;15912,229; -104,875;19324,084;82,43933
 969,79;15486,329; -435,875;18760,084;82,94560
 970,34;15974,429;   54,125;19112,084;83,53625
 970,89;16809,930;  640,125;19820,084;84,30573
 971,44;16559,529;   50,125;19265,084;85,91954
 971,99;17968,330; 1290,125;20363,084;87,44425
 972,54;16849,629;  468,125;19755,084;84,93565
 973,09;15606,029; -476,875;18191,084;86,15245
 973,64;15705,529;  -27,875;18377,084;85,48459
 974,20;16007,129;  515,125;18425,084;86,49938
 974,75;16995,330; 1631,125;19224,084;87,33156
 975,30;15753,729;  388,125;18210,084;86,21726
 975,85;21368,029; 5804,125;23046,084;90,26761
 976,40;16071,329;  396,125;18327,084;87,41978
 976,95;15511,929;   -5,875;17805,084;87,12503
 977,50;15896,629;  836,125;18285,084;86,31176
 978,05;15819,529;  722,125;18374,084;85,52821
 978,60;14556,329; -411,875;17190,084;85,03715
 979,15;16389,529; 1598,125;18938,084;85,30242
 979,70;14834,529;  -78,875;17775,084;83,52996
 980,25;14784,029; -197,875;17833,084;83,08989
 980,80;15044,829; -108,875;18222,084;82,66727
 981,35;15359,629;  -43,875;18270,084;84,10800
 981,90;15117,729;  -72,875;17982,084;84,13536
 982,45;16385,729; 1261,125;19240,084;84,12391
 983,00;16090,429; 1295,125;18953,084;83,78830
 983,55;15096,729;  534,125;17932,084;83,70295
 984,10;14576,229;  124,125;16978,084;85,74902
 984,65;14744,229;  340,125;17150,084;85,68792
 985,20;15098,829;  793,125;16975,084;88,40527
 985,75;15165,329;  818,125;17087,084;88,18760
 986,30;14173,229;  155,125;16075,083;88,05365
 986,85;14547,229;  484,125;16438,084;88,14805
 987,40;14884,129;  736,125;16574,084;89,32972
 987,95;14127,229;   75,125;16090,083;87,74362
 988,50;14215,529;  359,125;16262,083;87,13099
 989,05;15167,529; 1114,125;17426,084;86,15399
 989,60;14589,929;  580,125;16910,084;85,79203
 990,15;14278,529;  718,125;16740,084;84,63637
 990,70;14777,129; 1242,125;17138,084;85,14745
 991,25;13376,429;  354,125;15686,083;84,93569
 991,79;12671,129; -184,875;14792,083;85,83855
 992,34;14097,629; 1190,125;15746,083;88,67506
 992,89;16507,229; 3645,125;17873,084;90,40020
 993,44;13202,629;  433,125;15028,083;87,49257
 993,99;12893,429;  -66,875;15086,083;85,52986
 994,54;13267,429;  338,125;15515,083;85,19035
 995,09;13023,729;  107,125;15270,083;85,18526
 995,64;13588,329;  925,125;16107,083;83,40956
 996,19;12174,629; -258,875;14775,083;82,70280
 996,74;13351,129; 1123,125;15650,083;84,17457
 997,28;12052,629;   55,125;14206,083;84,78227
 997,83;11517,429; -285,875;13824,083;83,65230
 998,38;11754,529;   19,125;13656,083;86,05588
 998,93;11815,329;  129,125;13528,083;87,21726
 999,48;11799,929;   54,125;13344,083;88,38104
1000,03;13844,129; 2080,125;15488,083;87,73897
1000,58;11955,429;   91,125;13449,083;88,81824
1001,12;13032,529; 1074,125;14561,083;88,66643
1001,67;12345,029;  427,125;13765,083;89,35329
1002,22;12963,129; 1165,125;14271,083;90,02016
1002,77;12709,529; 1116,125;14397,083;87,29343
1003,32;11619,029;  134,125;13421,083;86,43742
1003,86;12529,329; 1301,125;13861,083;89,39683
1004,41;11775,029;  504,125;13397,083;87,41907
1004,96;11241,729;   87,125;12994,083;86,42319
1005,51;11464,829;  378,125;13113,083;87,05725
1006,06;12550,329; 1755,125;14033,083;87,92345
1006,60;10714,329;   11,125;12179,083;87,96220
1007,15;11432,429; 1146,125;12879,083;87,67017
1007,70;11012,429;  864,125;12400,083;87,97105
1008,25;10181,929;  307,125;11633,083;87,18736
1008,80; 9435,529; -355,875;10889,083;87,07373
1009,34;10564,829; 1102,125;11956,083;87,18206
1009,89;10179,329;  691,125;11458,083;88,12335
1010,44; 9724,529;  140,125;11135,083;87,17090
1010,99;10079,829;  498,125;11319,083;88,54765
1011,53; 9446,229; -267,875;11037,083;85,92782
1012,08; 9561,529; -304,875;10837,083;88,55180
1012,63;10455,429;  262,125;11868,083;87,82820
1013,18;10572,329;  392,125;12220,083;86,06899
1013,72;11242,029;  527,125;13004,083;85,87754
1014,27;11166,429;   18,125;13235,083;84,34848
1014,82;12384,529;  918,125;14561,083;84,04632
1015,36;11963,329;  205,125;14265,083;83,62901
1015,91;12040,529;  288,125;14363,083;83,49868
1016,46;12200,029;  372,125;14113,083;86,07773
1017,01;11776,229;  -50,875;13598,083;86,65207
1017,55;11409,229; -228,875;13033,083;87,75555
1018,10;11832,229;  531,125;13401,083;87,80996
1018,65;11590,329;  552,125;13100,083;87,96813
1019,19;11570,529;  772,125;13287,083;86,28398
1019,74;11297,629;  791,125;13092,083;85,41208
1020,29;11260,129;  564,125;12951,083;86,34892
1020,83;10861,429;  518,125;12603,083;85,58825
1021,38;11083,529;  746,125;12697,083;86,49854
1021,93;10331,929;  240,125;11998,083;85,82956
1022,47;10168,129;  156,125;11727,083;86,52701
1023,02; 9399,129; -263,875;10806,083;87,29034
1023,56;10593,229; 1195,125;11986,083;87,09240
1024,11; 8919,129; -380,875;10191,083;87,96860
1024,66; 9597,929;  548,125;10918,083;87,26943
1025,20; 8666,829; -355,875;10032,083;86,85734
1025,75; 9045,229;  152,125;10360,083;87,11933
1026,30; 9197,929;  464,125;10566,083;86,45654
1026,84; 8378,529; -189,875; 9744,083;86,25368
1027,39; 9109,429;  770,125;10224,083;88,20965
1027,93; 8099,029;  -97,875; 9269,083;87,50871
1028,48; 8521,629;  498,125; 9721,083;86,99491
1029,03; 8846,629; 1032,125; 9830,083;88,82179
1029,57; 7894,629;  143,125; 8915,083;88,36687
1030,12; 7879,929;  103,125; 8737,083;90,07230
1030,66; 8052,829;  301,125; 9111,083;87,98798
1031,21; 8176,629;  455,125; 9135,083;88,95785
1031,75;10198,729; 2320,125;11084,083;89,89779
1032,30; 8271,329;  516,125; 9358,083;87,70913
1032,84; 8136,429;  702,125; 9389,083;85,58006
1033,39; 7417,029;  105,125; 8756,083;84,52132
1033,94; 6871,529;  -35,875; 8232,083;83,54426
1034,48; 7920,229; 1006,125; 9197,083;84,41142
1035,03; 7532,529;  802,125; 8734,083;84,85174
1035,57; 6680,629;  127,125; 8049,083;82,72581
1036,12; 6262,329; -288,875; 7693,083;82,07515
1036,66; 7041,729;  584,125; 8253,083;84,20445
1037,21; 6193,929; -276,875; 7339,083;84,96375
1037,75; 7769,029; 1455,125; 8794,083;86,03271
1038,30; 6807,529;  492,125; 7853,083;85,79595
1038,84; 6266,029;   54,125; 7281,083;85,95461
1039,39; 5825,929; -293,875; 6845,083;85,72405
1039,93; 6648,429;  586,125; 7358,083;89,52069
1040,48; 6253,629;  368,125; 7244,083;85,59540
1041,02; 6626,529;  790,125; 7559,083;86,22308
1041,57; 6409,529;  557,125; 7207,083;88,00663
1042,11; 6788,029; 1125,125; 7685,083;86,32531
1042,66; 6044,729;  337,125; 6952,083;86,28329
1043,20; 5389,529; -311,875; 6261,083;86,74031
1043,74; 6177,329;  523,125; 7176,083;84,98782
1044,29; 6645,229; 1221,125; 7504,083;86,33041
1044,83; 5919,529;  649,125; 6675,083;87,46168
1045,38; 5369,429;  173,125; 6229,083;85,80482
1045,92; 4855,929; -215,875; 5671,083;86,15322
1046,47; 5081,529;  172,125; 5813,083;87,03138
1047,01; 5602,629;  771,125; 6415,083;85,60489
1047,55; 5219,029;  411,125; 6032,083;85,53531
1048,10; 4546,829; -218,875; 5305,083;86,27335
1048,64; 5306,529;  562,125; 6014,083;87,02202
1049,19; 5128,429;  456,125; 5939,083;85,21502
1049,73; 5122,829;  496,125; 5910,083;85,45880
1050,27; 4617,729;  232,125; 5421,083;84,51800
1050,82; 4580,429;  245,125; 5111,083;89,09456
1051,36; 4218,029;  201,125; 4710,083;89,08719
1051,91; 4584,429;  626,125; 5202,083;86,50219
1052,45; 4410,929;  546,125; 4872,083;89,33984
1052,99; 3999,529;   96,125; 4499,083;88,65412
1053,54; 4291,629;  283,125; 4708,083;90,58852
1054,08; 3737,929; -202,875; 4192,083;89,66647
1054,62; 4495,529;  579,125; 4902,083;90,59546
1055,17; 4617,729;  769,125; 5071,083;89,46167
1055,71; 4276,629;  526,125; 4660,083;90,72429
1056,25; 7112,229; 3304,125; 7029,083;102,23212
1056,80; 4480,529;  821,125; 4975,083;88,09439
1057,34; 3292,429; -197,875; 3732,083;88,81276
1057,88; 3644,029;  133,125; 4050,083;89,63343
1058,43; 4187,929;  789,125; 4475,083;92,20951
1058,97; 3887,929;  586,125; 4235,083;90,48621
1059,51; 4013,629;  667,125; 4438,083;88,74413
1060,06; 4674,829; 1361,125; 4845,083;95,11319
1060,60; 3613,229;  261,125; 3964,083;90,52503
1061,14; 3506,929;  231,125; 3942,083;88,27381
1061,68; 3625,529;  377,125; 4130,083;86,55582
1062,23; 5870,929; 2726,125; 6034,083;95,06783
1062,77; 3673,729;  533,125; 4133,083;87,24001
1063,31; 3660,529;  525,125; 3985,083;90,61971
1063,85; 3964,629;  930,125; 4314,083;89,67321
1064,40; 3111,229;   55,125; 3530,083;87,94650
1064,94; 3224,229;  289,125; 3584,083;89,07865
1065,48; 3314,529;  325,125; 3595,083;91,42025
1066,02; 3840,729; 1011,125; 4153,083;90,05861
1066,57; 3000,929;  255,125; 3368,083;88,20562
1067,11; 2968,429;  234,125; 3362,083;87,41498
1067,65; 3224,829;  543,125; 3597,083;87,81076
1068,19; 3194,629;  507,125; 3546,083;88,43505
1068,74; 2835,329;  220,125; 3177,083;88,44237
1069,28; 4594,729; 1932,125; 4857,083;91,03049
1069,82; 3093,729;  581,125; 3266,083;93,58076
1070,36; 2585,129;   64,125; 2989,083;86,18941
1070,90; 6377,029; 3832,125; 6406,083;98,87123
1071,45; 2726,929;  314,125; 3145,083;85,22924
1071,99; 2964,229;  596,125; 3303,083;87,48211
1072,53; 2722,629;  419,125; 3206,083;82,65298
1073,07; 2741,829;  476,125; 3073,083;87,24453
1073,61; 2495,829;  224,125; 2798,083;88,25722
1074,15; 2852,629;  611,125; 3067,083;91,26801
1074,70; 2929,729;  770,125; 3170,083;89,98508
1075,24; 2562,129;  460,125; 2858,083;87,65808
1075,78; 2343,829;   68,125; 2577,083;90,70315
1076,32; 2731,829;  486,125; 2998,083;89,40053
1076,86; 2455,229;  228,125; 2776,083;87,40741
1077,40; 3602,029; 1387,125; 3860,083;89,56496
1077,94; 3221,029; 1000,125; 3470,083;89,91666
1078,49; 1967,829;   -9,875; 2357,083;83,55467
1079,03; 2162,229;  295,125; 2516,083;84,06751
1079,57; 2698,229;  800,125; 2945,083;88,49143
1080,11; 2934,629; 1024,125; 3207,083;87,51904
1080,65; 3163,629; 1170,125; 3378,083;90,28722
1081,19; 4400,629; 2483,125; 4457,083;97,14006
1081,73; 2140,829;  378,125; 2389,083;87,65493
1082,27; 2046,329;  216,125; 2337,083;86,29138
1082,81; 1759,629;  -11,875; 2070,083;85,08836
1083,35; 2188,329;  279,125; 2274,083;95,70146
1083,89; 2271,029;  464,125; 2379,083;94,35736
1084,44; 3715,929; 1871,125; 3685,083;101,70048
1084,98; 2349,429;  486,125; 2409,083;96,89780
1085,52; 1960,129;  272,125; 2100,083;92,34369
1086,06; 1610,129; -143,875; 1776,083;91,35636
1086,60; 2036,829;  342,125; 2138,083;94,36212
1087,14; 1615,429;   -3,875; 1825,083;88,53696
1087,68; 2270,129;  627,125; 2399,083;92,72251
1088,22; 2019,429;  356,125; 2097,083;95,53958
1088,76; 2983,429; 1404,125; 3075,083;94,51488
1089,30; 1499,329;  -76,875; 1712,083;88,10737
1089,84; 1930,329;  418,125; 1977,083;97,00094
1090,38; 3144,129; 1506,125; 3052,083;105,95397
1090,92; 1798,929;  332,125; 1893,083;93,96818
1091,46; 2154,529;  672,125; 2146,083;100,57300
1092,00; 2180,929;  658,125; 2335,083;90,80752
1092,54; 1692,729;  301,125; 1867,083;88,86597
1093,08; 2578,929;  995,125; 2517,083;104,06358
1093,62; 1798,329;  314,125; 2003,083;87,87690
1094,16; 1326,829; -241,875; 1454,083;92,49662
1094,70; 1392,529; -164,875; 1582,083;89,14947
1095,24; 1837,429;  409,125; 2018,083;88,77198
1095,78; 1808,829;  324,125; 1903,083;94,03061
1096,32; 1618,629;  163,125; 1810,083;88,37528
1096,86; 1860,629;  529,125; 1938,083;94,50273
1097,40; 2019,029;  688,125; 2046,083;98,00773
1097,93; 3176,529; 1831,125; 3276,083;93,11024
1098,47; 2028,529;  640,125; 2090,083;95,75477
1099,01; 2255,029; 1012,125; 2380,083;90,85833
1099,55; 1886,529;  635,125; 1942,083;95,74935
1100,09; 1230,529;   38,125; 1370,083;89,52263

