
Integration time [ms]: 4000,000
Averaging Nr. [scans]: 10
Smoothing Nr. [pixels]: 0
Data measured with spectrometer [name]: 1803151U1
Wave   ;Sample   ;Dark     ;Reference;Transmittance
[nm]   ;[counts] ;[counts] ;[counts] ;[%]

 195,95; 2427,388; 2512,211; 2478,307; 0,00000
 196,55; 2190,037; 2248,177; 2092,074; 0,00000
 197,15; 1770,865; 1889,168; 1952,600;-186,50380
 197,76; 3181,811; 3337,208; 3317,415; 0,00000
 198,36; 1866,855; 1977,179; 1944,763; 0,00000
 198,96; 2952,490; 2924,209; 3019,875;29,56281
 199,56; 2233,181; 2350,196; 2275,022; 0,00000
 200,16; 1900,717; 1989,201; 2096,117;-82,75986
 200,76; 1534,645; 1685,215; 1624,943; 0,00000
 201,36; 3382,919; 3433,245; 3459,283;-193,27539
 201,96; 1589,561; 1810,244; 1604,081; 0,00000
 202,56; 2248,672; 2387,230; 2371,485; 0,00000
 203,16; 2417,528; 2437,212; 2539,537;-19,23655
 203,76; 1876,630; 1921,209; 1955,104;-131,52421
 204,36; 1519,974; 1623,205; 1658,752;-290,40030
 204,96; 2277,387; 2441,189; 2334,724; 0,00000
 205,56; 1939,425; 2036,169; 2056,087;-485,70930
 206,16; 1565,973; 1647,182; 1741,169;-86,40542
 206,76; 1942,717; 2095,177; 2063,817; 0,00000
 207,36; 2780,662; 2848,195; 2791,049; 0,00000
 207,96; 2709,615; 2813,180; 2953,250;-73,93778
 208,56; 2299,913; 2438,205; 2368,982; 0,00000
 209,16; 1864,906; 1922,191; 1919,413; 0,00000
 209,76; 1487,444; 1522,193; 1556,359;-101,70423
 210,36; 1707,265; 1836,191; 1754,900; 0,00000
 210,96; 2021,095; 2125,203; 2216,293;-114,29203
 211,56; 2025,821; 2061,196; 2074,251;-270,96813
 212,16; 4394,120; 4457,174; 4516,668;-105,98557
 212,76; 1800,225; 1847,169; 1897,087;-94,04223
 213,36; 2655,401; 2664,197; 2608,995; 0,00000
 213,96; 2281,121; 2441,196; 2385,251; 0,00000
 214,56; 1976,319; 2139,175; 2136,385; 0,00000
 215,16; 1945,017; 2019,177; 2035,817;-445,68563
 215,76; 3929,830; 4018,209; 3966,104; 0,00000
 216,36; 1490,346; 1672,190; 1545,927; 0,00000
 216,96; 3295,785; 3403,214; 3412,456;-1162,43726
 217,56; 1820,208; 1916,188; 1869,264; 0,00000
 218,16; 2312,382; 2392,219; 2328,321; 0,00000
 218,75; 1522,923; 1669,194; 1593,819; 0,00000
 219,35; 1741,311; 1884,184; 1882,115; 0,00000
 219,95; 2381,380; 2354,173; 2307,438; 0,00000
 220,55; 2113,832; 2260,183; 2155,656; 0,00000
 221,15; 2965,935; 2926,179; 3057,507;30,27238
 221,75; 1929,285; 1985,168; 2024,857;-140,80158
 222,35; 2241,077; 2386,201; 2399,603;-1082,84908
 222,95; 3227,370; 3343,186; 3235,318; 0,00000
 223,55; 2992,741; 3174,196; 3195,508;-851,41073
 224,15; 2511,302; 2599,172; 2511,979; 0,00000
 224,75; 2217,403; 2235,171; 2224,262; 0,00000
 225,35; 1916,378; 1933,176; 1922,871; 0,00000
 225,95; 2664,067; 2766,189; 2828,467;-163,97820
 226,55; 1868,871; 1901,185; 1923,602;-144,14888
 227,15; 1862,227; 1968,190; 1906,953; 0,00000
 227,75; 3029,670; 3068,186; 3080,318;-317,46489
 228,34; 2040,705; 2055,168; 2111,114;-25,85074
 228,94; 2536,444; 2671,193; 2621,359; 0,00000
 229,54; 1795,868; 1835,211; 1873,050;-103,97513
 230,14; 2226,919; 2360,198; 2223,684; 0,00000
 230,74; 1786,112; 1818,206; 1803,698; 0,00000
 231,34; 1880,134; 1932,204; 1887,523; 0,00000
 231,94; 2311,310; 2514,210; 2579,847;-309,12138
 232,54; 1771,456; 1828,203; 1927,063;-57,40105
 233,14; 2282,552; 2258,207; 2341,928;29,07833
 233,74; 1838,926; 1933,214; 1949,969;-562,72940
 234,33; 1834,619; 1958,198; 1864,684; 0,00000
 234,93; 1846,957; 1895,177; 1918,331;-208,25939
 235,53; 1862,383; 1866,193; 1891,589;-15,00226
 236,13; 2169,597; 2229,201; 2294,860;-90,77787
 236,73; 2166,462; 2391,218; 2233,348; 0,00000
 237,33; 2156,987; 2293,166; 2311,424;-745,83417
 237,93; 3310,822; 3516,195; 3338,535; 0,00000
 238,53; 1902,953; 1915,182; 1922,196;-174,32738
 239,12; 3691,031; 3789,184; 3831,372;-232,65664
 239,72; 3015,032; 3098,206; 3120,955;-365,61387
 240,32; 1276,070; 1577,232; 1335,917; 0,00000
 240,92; 1386,882; 1418,194; 1419,305;-2818,45951
 241,52; 1717,497; 1870,201; 1887,860;-864,73528
 242,12; 2645,030; 2711,186; 2602,805; 0,00000
 242,72; 1698,185; 1863,191; 1833,156; 0,00000
 243,31; 1774,320; 1711,197; 1883,968;36,53549
 243,91; 2186,323; 2297,194; 2153,819; 0,00000
 244,51; 1450,773; 1471,206; 1372,469; 0,00000
 245,11; 4207,639; 4298,198; 4225,941; 0,00000
 245,71; 2690,709; 2738,187; 2859,548;-39,12061
 246,31; 3181,695; 3422,203; 3267,293; 0,00000
 246,90; 3532,573; 3551,206; 3625,469;-25,09032
 247,50; 1673,712; 1878,206; 1860,698; 0,00000
 248,10; 2154,811; 2245,208; 2241,131; 0,00000
 248,70; 1271,774; 1439,181; 1336,453; 0,00000
 249,30; 2051,404; 2143,217; 2215,146;-127,64365
 249,90; 1674,437; 1796,225; 1854,390;-209,38604
 250,49; 1936,003; 2091,218; 1992,862; 0,00000
 251,09; 1784,899; 1853,199; 1913,427;-113,40085
 251,69; 2307,379; 2432,199; 2479,171;-265,73525
 252,29; 2223,937; 2296,200; 2335,374;-184,47147
 252,89; 2065,794; 2158,228; 2292,309;-68,93841
 253,48; 2026,473; 2050,206; 2038,469; 0,00000
 254,08; 1301,944; 1391,193; 1317,359; 0,00000
 254,68; 1242,052; 1292,207; 1299,928;-649,57946
 255,28; 2049,509; 2166,211; 2158,564; 0,00000
 255,88; 2015,344; 2025,193; 2183,359;-6,22682
 256,47; 1296,022; 1477,195; 1346,535; 0,00000
 257,07; 1925,261; 2022,196; 1989,765; 0,00000
 257,67; 2463,905; 2516,168; 2566,114;-104,63833
 258,27; 2087,391; 2125,208; 2267,158;-26,64079
 258,86; 2577,554; 2807,180; 2628,480; 0,00000
 259,46; 1775,494; 1821,228; 1737,309; 0,00000
 260,06; 1902,683; 1989,218; 1992,605;-2554,76431
 260,66; 1950,875; 2100,227; 1906,336; 0,00000
 261,26; 3122,635; 3119,203; 3137,806;18,45169
 261,85; 1241,681; 1372,220; 1391,038;-693,70824
 262,45; 1993,536; 2149,202; 2033,090; 0,00000
 263,05; 1904,877; 1985,201; 1995,603;-772,18565
 263,65; 1220,314; 1328,227; 1383,565;-195,00694
 264,24; 2753,815; 2882,180; 2818,250; 0,00000
 264,84; 2279,355; 2400,204; 2371,779; 0,00000
 265,44; 2486,030; 2567,209; 2661,104;-86,45815
 266,04; 1597,894; 1699,228; 1649,309; 0,00000
 266,63; 1717,145; 1826,192; 1727,643; 0,00000
 267,23; 1164,935; 1167,227; 1168,822;-143,73948
 267,83; 1943,883; 2038,193; 2000,589; 0,00000
 268,42; 1583,557; 1568,200; 1638,630;21,80490
 269,02; 2884,093; 2966,229; 2994,025;-295,48984
 269,62; 2036,481; 2085,197; 1967,738; 0,00000
 270,22; 1083,569; 1248,210; 1167,334; 0,00000
 270,81; 1960,826; 2089,191; 2049,670; 0,00000
 271,41; 1929,705; 2144,239; 2007,729; 0,00000
 272,01; 2007,196; 2081,202; 2139,576;-126,77885
 272,61; 1925,485; 1929,191; 1999,156;-5,29665
 273,20; 2438,308; 2612,235; 2487,580; 0,00000
 273,80; 1560,346; 1667,214; 1630,226; 0,00000
 274,40; 1331,225; 1486,215; 1295,686; 0,00000
 274,99; 1910,734; 2101,228; 1993,539; 0,00000
 275,59; 2257,107; 2333,213; 2291,996; 0,00000
 276,19; 2603,739; 2646,223; 2626,957; 0,00000
 276,78; 1962,525; 2088,192; 2109,386;-592,92782
 277,38; 1515,866; 1587,190; 1580,183; 0,00000
 277,98; 1695,619; 1877,222; 1874,984; 0,00000
 278,57; 1512,985; 1695,191; 1500,156; 0,00000
 279,17; 1846,724; 1921,193; 1851,103; 0,00000
 279,77; 4144,543; 4198,194; 4182,076; 0,00000
 280,37; 1795,725; 1924,238; 1844,985; 0,00000
 280,96; 1479,381; 1501,220; 1550,038;-44,73662
 281,56; 1168,088; 1214,211; 1255,307;-112,23170
 282,16; 1424,179; 1549,222; 1596,470;-264,65318
 282,75; 1307,380; 1387,173; 1306,438; 0,00000
 283,35; 1708,512; 1704,230; 1774,998; 6,05190
 283,95; 1723,076; 1859,226; 1827,619; 0,00000
 284,54; 1555,156; 1545,226; 1699,363; 6,44229
 285,14; 1822,716; 1953,225; 1907,133; 0,00000
 285,73; 2158,370; 2212,209; 2248,618;-147,87367
 286,33; 1478,140; 1524,220; 1481,524; 0,00000
 286,93; 1534,216; 1566,225; 1536,133; 0,00000
 287,52; 1975,889; 2235,234; 2013,607; 0,00000
 288,12; 2237,306; 2309,238; 2360,012;-141,66771
 288,72; 2376,723; 2490,241; 2425,418; 0,00000
 289,31; 2230,057; 2248,225; 2264,646;-110,63751
 289,91; 2925,146; 3013,214; 2983,226; 0,00000
 290,51; 1819,412; 1930,206; 1903,698; 0,00000
 291,10; 2155,514; 2219,204; 2303,266;-75,76565
 291,70; 1424,898; 1543,246; 1473,743; 0,00000
 292,29; 2068,780; 2086,198; 2125,454;-44,37016
 292,89; 1624,852; 1583,207; 1645,928;66,39666
 293,49; 2087,079; 2343,222; 2176,470; 0,00000
 294,08; 1089,498; 1244,223; 1180,443; 0,00000
 294,68; 1437,584; 1524,216; 1476,172; 0,00000
 295,28; 1834,307; 1973,213; 1854,996; 0,00000
 295,87; 1660,358; 1670,199; 1772,914;-9,58073
 296,47; 1746,267; 1810,212; 1925,767;-55,33783
 297,06; 2036,086; 2246,213; 2154,740; 0,00000
 297,66; 1143,151; 1230,231; 1171,944; 0,00000
 298,26;  894,736; 1001,226; 1010,106;-1199,24941
 298,85; 2019,587; 2011,212; 2005,023; 0,00000
 299,45; 1644,620; 1737,197; 1687,968; 0,00000
 300,04; 1626,695; 1731,203; 1748,293;-611,53525
 300,64; 1729,232; 1835,183; 1774,656; 0,00000
 301,23; 2041,713; 2145,230; 2000,998; 0,00000
 301,83; 1780,234; 1820,204; 1823,523;-1204,35870
 302,43; 1893,696; 1863,225; 2007,876;21,06503
 303,02; 1477,074; 1508,181; 1526,453;-170,25187
 303,62; 1594,775; 1624,203; 1686,036;-47,59423
 304,21; 2235,381; 2335,172; 2335,722; 0,00000
 304,81; 2391,899; 2406,199; 2490,427;-16,97734
 305,40; 1726,212; 1888,183; 1956,399;-237,43940
 306,00; 1712,804; 1844,216; 1800,145; 0,00000
 306,59; 1940,122; 1864,195; 2033,535;44,83688
 307,19; 1263,008; 1366,212; 1307,280; 0,00000
 307,79; 1690,176; 1783,202; 1770,320; 0,00000
 308,38; 1756,105; 1870,144; 1960,814;-125,77467
 308,98; 1254,919; 1278,198; 1387,684;-21,26252
 309,57; 1254,770; 1302,232; 1349,917;-99,53256
 310,17; 2023,589; 2087,328; 2086,805; 0,00000
 310,76; 2249,650; 2448,350; 2320,875; 0,00000
 311,36; 1605,104; 1691,263; 1652,745; 0,00000
 311,95; 1306,100; 1473,198; 1294,711; 0,00000
 312,55; 3017,947; 3163,259; 3240,109;-189,08561
 313,14; 1002,111; 1094,232; 1100,431;-1486,10307
 313,74; 1190,765; 1356,215; 1248,199; 0,00000
 314,33; 1969,801; 1984,197; 1922,995; 0,00000
 314,93; 2137,413; 2227,205; 2242,982;-569,13745
 315,52; 1969,605; 2056,215; 2013,429; 0,00000
 316,12; 1619,757; 1705,201; 1681,347; 0,00000
 316,71; 5233,559; 5380,223; 5305,213; 0,00000
 317,31;  827,463;  832,217;  892,632;-7,86814
 317,90; 1338,574; 1406,228; 1509,052;-65,79568
 318,50; 1174,365; 1180,215; 1257,199;-7,59810
 319,09;  992,579; 1143,199; 1043,171; 0,00000
 319,69; 1719,322; 1842,219; 1682,835; 0,00000
 320,28; 1708,371; 1746,208; 1671,901; 0,00000
 320,88; 1468,165; 1595,191; 1536,900; 0,00000
 321,47; 1128,365;  986,215; 1323,199;42,18313
 322,07; 1266,561; 1448,220; 1270,781; 0,00000
 322,66; 1267,532; 1325,207; 1394,672;-83,02929
 323,26; 1272,531; 1353,184; 1211,372; 0,00000
 323,85; 1625,763; 1714,217; 1678,632; 0,00000
 324,45;  827,788;  977,211;  830,307; 0,00000
 325,04; 1205,912; 1254,206; 1236,698; 0,00000
 325,64; 1641,439; 1683,222; 1607,240; 0,00000
 326,23; 1344,286; 1433,213; 1393,740; 0,00000
 326,83; 1931,714; 2037,204; 2163,266;-83,68110
 327,42; 1571,536; 1727,226; 1704,106; 0,00000
 328,01; 1515,709; 1553,210; 1577,847;-152,20679
 328,61;  742,656;  856,226;  801,363; 0,00000
 329,20; 2034,676; 2137,202; 2038,320; 0,00000
 329,80;  805,694;  843,181;  860,709;-213,86563
 330,39; 1467,286; 1520,213; 1506,740; 0,00000
 330,99; 1070,587; 1175,212; 1173,023; 0,00000
 331,58; 1145,348; 1280,212; 1134,794; 0,00000
 332,17; 1855,332; 1979,207; 1954,672; 0,00000
 332,77; 2525,337; 2584,200; 2567,374; 0,00000
 333,36; 1377,643; 1382,194; 1389,076;-66,12860
 333,96;  732,843;  904,217;  744,375; 0,00000
 334,55;  983,646; 1104,190;  863,927; 0,00000
 335,15; 1073,071; 1114,208; 1192,901;-52,27478
 335,74; 1218,257; 1342,200; 1352,630;-1188,33829
 336,33; 1144,248; 1267,212; 1158,794; 0,00000
 336,93; 1396,354; 1518,205; 1483,496; 0,00000
 337,52; 1444,088; 1560,211; 1452,307; 0,00000
 338,12; 1478,914; 1535,204; 1623,266;-63,92081
 338,71; 1422,590; 1601,209; 1484,874; 0,00000
 339,30; 2090,849; 2224,210; 2123,077; 0,00000
 339,90; 1251,722; 1419,242; 1253,134; 0,00000
 340,49; 1340,734; 1452,205; 1493,239;-271,65781
 341,08; 1421,157; 1540,225; 1456,646; 0,00000
 341,68; 1333,748; 1365,212; 1388,794;-133,42202
 342,27; 1842,232; 1946,207; 1921,672; 0,00000
 342,87; 1515,859; 1610,223; 1665,214;-171,59851
 343,46; 2050,985; 2096,191; 2098,156;-2300,16149
 344,05; 1653,628; 1746,212; 1701,537; 0,00000
 344,65; 1967,685; 2023,191; 2100,156;-72,11800
 345,24; 1876,961; 1907,196; 2016,765;-27,59397
 345,83; 2124,547; 2147,189; 2162,210;-150,74197
 346,43; 1042,952; 1126,207; 1106,928; 0,00000
 347,02;  866,887; 1055,189;  914,724; 0,00000
 347,61; 1036,788; 1148,234; 1020,607; 0,00000
 348,21; 2080,157; 2216,200; 2132,630; 0,00000
 348,80;  710,990;  738,209;  661,874; 0,00000
 349,40;  987,412; 1031,206; 1140,698;-39,99748
 349,99; 1137,924; 1148,193; 1266,103;-8,70936
 350,58; 1449,368; 1666,235; 1477,350; 0,00000
 351,18; 1406,936; 1428,202; 1427,090; 0,00000
 351,77; 1110,026; 1195,214; 1170,969; 0,00000
 352,36; 1001,044; 1008,193; 1071,359;-11,31719
 352,96;  642,478;  716,200;  755,887;-185,76027
 353,55; 1741,712; 1825,231; 1765,714; 0,00000
 354,14; 1331,749; 1280,210; 1343,077;81,98037
 354,73;  677,396;  806,202;  599,576; 0,00000
 355,33; 1043,820; 1146,197; 1050,968; 0,00000
 355,92; 1346,839; 1422,222; 1506,240;-89,72051
 356,51;  724,871;  801,231;  799,201; 0,00000
 357,11;  952,049; 1008,234;  989,377; 0,00000
 357,70; 1466,992; 1529,254; 1489,757; 0,00000
 358,29; 1036,040; 1067,220; 1121,524;-57,41813
 358,89; 1021,478; 1209,223; 1149,187; 0,00000
 359,48; 1034,468; 1093,259; 1216,366;-47,75645
 360,07; 1862,012; 1912,231; 2043,714;-38,19429
 360,66; 1379,579; 1447,269; 1408,070; 0,00000
 361,26; 2136,647; 2198,282; 2132,409; 0,00000
 361,85; 1243,302; 1233,265; 1348,177; 8,73438
 362,44; 1425,991; 1515,302; 1512,073; 0,00000
 363,04; 1052,352; 1020,300; 1123,127;31,17118
 363,63; 1116,218; 1100,317; 1093,615; 0,00000
 364,22; 1497,854; 1455,321; 1556,994;41,83354
 364,81; 1214,561; 1163,337; 1167,279;1299,33119
 365,41; 1907,201; 1782,337; 1881,509;125,90653
 366,00;  768,226;  624,332;  833,184;68,89753
 366,59; 1828,651; 1882,302; 1893,559;-476,61169
 367,18; 3209,066; 3068,308; 3433,398;38,55436
 367,78; 1304,758; 1262,293; 1359,829;43,53775
 368,37; 1206,491; 1067,279; 1213,773;95,02876
 368,96; 1000,592;  762,278; 1080,057;74,99358
 369,55; 1722,722; 1523,265; 1793,434;73,82688
 370,15; 1443,995; 1370,273; 1517,192;50,17909
 370,74; 2047,563; 1903,265; 2159,948;56,21649
 371,33; 1722,522; 1618,242; 1747,134;80,90491
 371,92; 2331,190; 2245,280; 2337,490;93,16796
 372,51; 1687,212; 1704,277; 1700,314; 0,00000
 373,11; 1126,336; 1143,296; 1065,005; 0,00000
 373,70; 1011,933; 1190,299; 1072,154; 0,00000
 374,29;  935,179;  975,315;  969,669; 0,00000
 374,88; 1408,567; 1357,283; 1441,382;60,98015
 375,48; 1316,765; 1340,286; 1420,814;-29,20802
 376,07; 1448,912; 1326,254; 1586,014;47,21963
 376,66; 1045,220;  949,267; 1068,867;80,22880
 377,25;  613,130;  488,279;  729,003;51,86478
 377,84; 2159,891; 2123,279; 2292,773;21,60061
 378,44; 1800,201; 1778,290; 1935,193;13,96509
 379,03;  955,242;  871,266; 1005,407;62,60248
 379,62;  984,989; 1017,281; 1089,206;-44,89693
 380,21;  666,642;  682,289;  632,707; 0,00000
 380,80; 1099,903; 1126,287; 1133,761;-353,05292
 381,39;  550,703;  529,287;  673,761;14,82344
 381,99; 1186,152; 1182,277; 1180,827; 0,00000
 382,58; 1733,321; 1809,266; 1862,150;-143,60545
 383,17; 2123,758; 2057,270; 2259,529;32,87260
 383,76; 2281,874; 2241,251; 2411,352;23,88181
 384,35; 2009,884; 1937,263; 2145,488;34,87607
 384,94; 2577,988; 2619,259; 2617,623; 0,00000
 385,54; 2063,831; 2011,278; 2148,287;38,35739
 386,13;  982,417; 1009,295; 1124,032;-23,42604
 386,72; 1747,327; 1791,283; 1815,152;-184,14988
 387,31; 1272,530; 1159,279; 1319,003;70,90418
 387,90;  977,784; 1070,286;  951,788; 0,00000
 388,49;  966,262;  986,289;  977,964; 0,00000
 389,08; 2439,001; 2261,290; 2616,193;50,07323
 389,68; 1405,376; 1432,272; 1491,219;-45,62788
 390,27; 1336,780; 1340,268; 1408,353;-5,12248
 390,86; 1320,657; 1293,271; 1276,245; 0,00000
 391,45; 1296,301; 1283,266; 1456,894; 7,50741
 392,04; 2070,730; 1975,256; 2139,703;58,05744
 392,63;  635,199;  522,269;  745,326;50,62849
 393,22;  999,657;  996,271; 1066,245; 4,83856
 393,81;  916,790;  877,257; 1005,190;30,90130
 394,41;  924,643;  944,288;  967,990;-82,88330
 395,00;  937,385;  912,285; 1057,071;17,33567
 395,59;  449,137;  499,272;  478,989; 0,00000
 396,18; 1111,652; 1120,277; 1182,827;-13,78832
 396,77; 1261,129; 1215,257; 1304,420;51,44739
 397,36; 2836,958; 2812,247; 3003,229;12,93884
 397,95; 1274,683; 1286,264; 1414,204;-9,05223
 398,54;  819,762;  742,266;  933,664;40,48946
 399,13; 1629,469; 1596,258; 1779,650;18,10910
 399,72;  517,331;  524,278;  524,287; 0,00000
 400,31;  933,052; 1072,300;  966,127; 0,00000
 400,90; 1302,674; 1271,251; 1444,352;18,15304
 401,50; 1396,428; 1429,282; 1409,436; 0,00000
 402,09; 1647,659; 1550,269; 1756,813;47,15217
 402,68; 1469,303; 1518,287; 1615,761;-50,25398
 403,27;  840,952;  870,277;  910,827;-72,31684
 403,86;  873,736;  968,273;  956,705; 0,00000
 404,45;  667,107;  647,260;  765,596;16,77197
 405,04; 1761,853; 1679,253; 1814,811;60,93340
 405,63; 1206,372; 1191,253; 1345,784; 9,78374
 406,22;  836,807;  771,283;  896,895;52,16379
 406,81; 1267,555; 1238,274; 1438,678;14,61124
 407,40; 1536,187; 1594,237; 1594,039; 0,00000
 407,99; 1810,668; 1804,282; 1835,666;20,34680
 408,58; 1701,408; 1770,282; 1812,179;-164,38796
 409,17; 2070,944; 1960,264; 2093,974;82,77568
 409,76; 1957,046; 1959,285; 2082,842;-1,81233
 410,35;  891,032;  807,254;  915,271;77,56015
 410,94; 1272,957; 1318,271; 1328,245;-454,31904
 411,53; 1955,880; 1993,291; 2129,653;-27,43493
 412,12; 1027,641;  968,244; 1111,824;41,36836
 412,71;  870,859;  922,292;  981,112;-87,44164
 413,30;  828,384;  854,263;  944,488;-28,68321
 413,89;  639,930;  667,279;  749,003;-33,46543
 414,48;  711,685;  745,262;  724,772; 0,00000
 415,07; 1484,985; 1542,239; 1531,472; 0,00000
 415,66;  920,334;  913,252;  926,838;52,12667
 416,25; 1966,068; 1895,259; 2037,366;49,82760
 416,84; 2392,624; 2354,263; 2469,001;33,43384
 417,43;  937,888;  985,259; 1071,623;-54,85058
 418,02; 1271,252; 1301,277; 1324,827;-127,49114
 418,61;  877,759;  831,269;  942,813;41,67857
 419,20;  869,143;  844,264;  865,974;114,59644
 419,79;  763,582;  761,266;  805,921; 5,18747
 420,38; 1194,777; 1217,271; 1164,502; 0,00000
 420,97; 2024,339; 2023,246; 2170,257; 0,74325
 421,56; 1018,652; 1016,254; 1114,527; 2,44063
 422,15;  864,673;  846,276;  867,368;87,22665
 422,74; 2166,668; 2179,282; 2268,666;-14,11282
 423,33; 1195,237; 1225,248; 1330,689;-28,46295
 423,92; 1622,119; 1710,270; 1676,299; 0,00000
 424,51; 1142,790; 1018,257; 1218,190;62,28731
 425,10; 1116,585;  995,262; 1102,772;112,84839
 425,69;  843,470;  916,256;  972,217;-130,06348
 426,28;  874,686;  819,238;  970,756;36,59496
 426,87; 1135,173; 1087,229; 1289,768;23,67150
 427,46; 2779,365; 2719,238; 2850,499;45,80755
 428,04;  617,106;  640,237;  649,012;-263,61151
 428,63; 1247,418; 1126,246; 1378,000;48,13125
 429,22;  880,809;  778,257;  954,163;58,29911
 429,81; 1271,504; 1268,240; 1446,445; 1,83168
 430,40;  459,047;  408,236;  518,810;45,95241
 430,99; 1554,874; 1422,251; 1662,352;55,23646
 431,58; 2647,765; 2577,262; 2714,515;51,36681
 432,17; 2348,538; 2257,247; 2334,973;117,45198
 432,76; 1560,400; 1540,244; 1634,310;21,42738
 433,35; 1691,856; 1642,249; 1812,662;29,10974
 433,94; 2283,969; 2103,257; 2383,933;64,38467
 434,52;  385,510;  437,233;  466,147;-178,88662
 435,11; 1193,166; 1175,214; 1213,483;46,91151
 435,70;  880,240;  776,245;  953,540;58,65621
 436,29;  496,970;  457,256;  555,217;40,54125
 436,88; 1568,745; 1488,263; 1807,258;25,22979
 437,47; 1251,112; 1161,231; 1209,714;185,38363
 438,06; 1148,888; 1074,235; 1120,323;161,97897
 438,65; 4082,399; 4070,269; 4238,326; 7,21827
 439,23;  899,505;  917,262;  961,028;-40,57183
 439,82; 1937,455; 1920,274; 1955,678;48,52897
 440,41; 1307,333; 1247,229; 1341,255;63,92238
 441,00; 1365,569; 1311,257; 1377,933;81,45708
 441,59; 1728,797; 1597,272; 1746,475;88,15118
 442,18; 1176,533; 1169,253; 1182,554;54,73075
 442,77;  843,736;  704,226;  867,106;85,65185
 443,35; 2187,790; 1990,233; 2283,890;67,27447
 443,94; 1738,847; 1688,259; 1836,109;34,21580
 444,53;  806,385;  649,262;  795,772;107,24405
 445,12; 1653,857; 1553,248; 1772,946;45,79415
 445,71; 1642,729; 1554,234; 1710,120;56,76896
 446,30; 2270,425; 2223,262; 2455,285;20,32707
 446,88;  857,994;  738,251;  782,608;269,95137
 447,47; 1629,811; 1461,255; 1644,730;91,86835
 448,06;  890,012;  781,231;  941,714;67,78308
 448,65; 1638,087; 1531,260; 1740,339;51,09401
 449,24; 2108,344; 1988,263; 2178,258;63,20251
 449,82;  999,487;  795,260; 1078,339;72,14481
 450,41; 1213,160; 1185,268; 1203,097;156,44496
 451,00; 1319,770; 1155,256; 1423,217;61,39497
 451,59;  514,062;  426,242;  578,364;57,72953
 452,18; 1087,096;  940,249; 1128,176;78,14079
 452,76;  850,632;  738,254;  914,271;63,84503
 453,35; 1196,568; 1133,259; 1299,366;38,11308
 453,94; 1045,817;  974,247; 1135,716;44,32439
 454,53; 1212,139; 1041,246; 1251,256;81,37335
 455,12; 1594,767; 1522,260; 1628,082;68,51729
 455,70;  859,412;  707,254; 1001,014;51,79660
 456,29; 1036,367;  875,236; 1049,066;92,69463
 456,88; 2051,642; 1889,242; 2070,391;89,65011
 457,47; 2511,090; 2401,232; 2626,174;48,83846
 458,05; 1271,153; 1211,253; 1382,811;34,91548
 458,64; 1215,875; 1118,227; 1325,336;47,14824
 459,23;  780,474;  650,251;  793,352;91,00112
 459,82; 1940,102; 1747,242; 2083,878;57,29044
 460,40; 1347,167; 1235,259; 1448,366;52,51281
 460,99; 1154,659; 1078,223; 1184,214;72,11553
 461,58; 1524,022; 1349,242; 1597,134;70,50652
 462,17;  425,094;  253,251;  484,608;74,27619
 462,75;  813,657;  622,248;  923,946;63,44388
 463,34; 1228,240; 1102,245; 1417,540;39,96083
 463,93; 1300,969; 1155,257; 1538,933;37,97803
 464,52; 1445,814; 1361,227; 1545,565;45,88692
 465,10; 1188,022; 1041,265; 1277,434;62,14079
 465,69; 1868,120; 1525,221; 1986,267;74,37411
 466,28;  562,691;  387,231;  649,458;66,91170
 466,86; 1705,961; 1618,244; 1741,081;71,40938
 467,45;  454,368;  211,259;  589,366;64,29624
 468,04;  459,037;  291,248;  539,689;67,53656
 468,63; 1280,472; 1081,253; 1274,784;102,93906
 469,21; 1498,593; 1182,229; 1642,025;68,80537
 469,80; 1949,094; 1571,251; 2091,608;72,61228
 470,39; 1648,562; 1430,218; 1824,348;55,39904
 470,97;  936,033;  696,253; 1111,554;57,73636
 471,56;  693,724;  415,263;  823,001;68,29412
 472,15; 1385,015; 1107,226; 1483,849;73,75790
 472,73; 1116,456;  832,249; 1337,662;56,23257
 473,32; 1645,691; 1365,231; 1833,458;59,89843
 473,91;  608,526;  352,237;  652,269;85,42050
 474,49; 1980,006; 1718,238; 2109,012;66,98698
 475,08;  798,295;  610,227;  923,592;60,01568
 475,67; 1244,030;  876,233; 1302,404;86,30268
 476,25; 2030,036; 1723,226; 2179,106;67,30050
 476,84;  877,970;  542,232; 1020,917;70,13754
 477,43; 1465,255; 1167,250; 1541,379;79,65309
 478,01; 1693,638; 1415,247; 1829,973;67,12642
 478,60;  625,771;  346,231;  723,201;74,15449
 479,19; 1322,018; 1010,223; 1430,700;74,15272
 479,77; 1057,282;  727,242; 1165,621;75,28642
 480,36;  946,127;  630,236; 1100,553;67,16555
 480,94;  987,533;  604,229; 1105,255;76,50375
 481,53; 1481,520; 1159,244; 1459,567;107,30984
 482,12; 1574,429; 1177,211; 1702,821;75,57279
 482,70; 1239,353;  864,229; 1382,512;72,37825
 483,29;  973,037;  675,224; 1132,673;65,10308
 483,88;  944,881;  622,220; 1035,038;78,16058
 484,46;  944,131;  616,232; 1063,688;73,28078
 485,05; 1149,142;  793,242; 1326,391;66,75442
 485,63; 1953,213; 1592,253; 2126,298;67,58977
 486,22; 1300,928;  898,212; 1473,537;69,99799
 486,81;  782,239;  463,246;  927,256;68,74685
 487,39; 1008,818;  518,200; 1179,401;74,20111
 487,98; 1007,857;  611,225; 1141,646;74,77675
 488,56; 1466,499; 1156,245; 1654,027;62,32732
 489,15; 1737,854; 1393,251; 1841,095;76,94712
 489,74; 2243,057; 1708,225; 2364,646;81,47690
 490,32; 1199,038;  851,247; 1243,973;88,55812
 490,91; 1036,274;  528,228; 1132,052;84,13810
 491,49; 1099,131;  616,232; 1351,688;65,65985
 492,08; 1268,299;  857,245; 1379,027;78,77894
 492,66; 2491,284; 2032,240; 2725,188;66,24502
 493,25; 1076,938;  564,224; 1248,673;74,90892
 493,84; 1791,333; 1310,229; 1853,255;88,59683
 494,42; 1452,501;  864,220; 1678,294;72,26377
 495,01; 1765,317; 1247,248; 1764,432;100,17096
 495,59; 1374,200;  912,221; 1606,011;66,58775
 496,18; 1006,147;  508,236; 1069,810;88,66357
 496,76; 1488,013; 1051,253; 1655,298;72,30586
 497,35;  813,075;  268,227;  922,336;83,29626
 497,93; 1691,085; 1142,239; 1946,472;68,24462
 498,52; 1081,156;  602,249; 1223,662;77,06737
 499,10; 1724,960; 1198,221; 1921,497;72,82673
 499,69; 2822,380; 2214,244; 2860,054;94,16642
 500,27; 2694,782; 2094,219; 2903,321;74,22581
 500,86; 2495,049; 1877,210; 2656,077;79,32530
 501,44; 2933,908; 2355,235; 3162,580;71,67602
 502,03; 1144,754;  607,205; 1324,496;74,94155
 502,61; 1461,093;  839,229; 1625,025;79,13813
 503,20;  733,086;  155,214;  912,456;76,31264
 503,78; 1857,469; 1317,210; 2101,334;68,89970
 504,37; 1124,552;  512,207; 1231,928;85,08082
 504,95; 3003,865; 2418,239; 3251,215;70,30518
 505,54;  872,449;  256,210; 1054,077;77,23576
 506,12; 1969,350; 1252,209; 2162,361;78,79353
 506,71; 1305,223;  623,194; 1487,819;78,88148
 507,29; 1300,176;  696,226; 1409,619;84,65875
 507,88; 1245,280;  511,198; 1231,454;101,91948
 508,46;  771,555;  110,227;  953,079;78,46311
 509,05; 1205,520;  460,221; 1351,267;83,64314
 509,63; 3109,155; 2504,227; 3338,079;72,54619
 510,22; 1226,324;  552,240; 1364,702;82,96811
 510,80; 3113,952; 2334,230; 3282,228;82,24931
 511,39; 2596,446; 1877,214; 2717,226;85,62161
 511,97; 1742,409; 1054,234; 1802,863;91,92461
 512,55; 3511,958; 2784,224; 3633,930;85,64537
 513,14; 1309,434;  532,204; 1539,523;77,15836
 513,72; 2229,304; 1307,216; 2304,146;92,49277
 514,31; 2412,619; 1601,222; 2479,984;92,33413
 514,89; 2648,569; 1917,234; 2819,634;81,04342
 515,48; 1776,734;  974,205; 1921,239;84,74127
 516,06; 2336,890; 1444,186; 2535,575;81,79526
 516,65; 1655,611;  798,232; 1769,431;88,28045
 517,23;  891,256;   59,226;  957,363;92,63955
 517,81; 1518,262;  769,218; 1763,348;75,34671
 518,40; 2148,454; 1217,205; 2288,496;86,92773
 518,98; 2201,566; 1368,237; 2437,783;77,91434
 519,57; 1574,825;  689,215; 1626,686;94,46800
 520,15; 1166,220;  272,197; 1378,968;80,77759
 520,73; 1872,290; 1019,232; 2068,174;81,32560
 521,32; 2199,011; 1249,231; 2412,714;81,63250
 521,90; 1540,468;  664,235; 1761,350;79,86705
 522,49; 3948,893; 2943,206; 4202,726;79,84688
 523,07; 1466,610;  466,209; 1697,131;81,27253
 523,65; 3264,065; 2258,215; 3570,199;76,66634
 524,24; 2250,725; 1217,238; 2500,985;80,50548
 524,82; 2215,330; 1130,233; 2423,404;83,90979
 525,40; 2313,549; 1270,210; 2537,077;82,35581
 525,99; 1114,374;   57,205; 1330,752;83,00979
 526,57; 1923,346;  821,214; 2084,226;87,26218
 527,16; 2450,906; 1489,190; 2708,697;78,86111
 527,74; 1227,189;   57,210; 1463,591;83,19080
 528,32; 2547,356; 1449,226; 2703,363;87,56062
 528,91; 1401,320;  285,197; 1689,968;79,45231
 529,49; 1979,892;  767,230; 2218,741;83,54480
 530,07; 1974,892;  765,207; 2085,442;91,62653
 530,66; 1250,773;   37,182; 1450,169;85,88831
 531,24; 1759,681;  495,220; 1926,038;88,37329
 531,82; 1583,364;  471,240; 1787,932;84,46347
 532,41; 2115,306;  844,214; 2296,713;87,51068
 532,99; 1863,381;  649,220; 2160,038;80,36448
 533,57; 2120,285;  815,239; 2351,472;84,95103
 534,16; 2207,580;  896,221; 2440,754;84,90326
 534,74; 1793,501;  424,220; 2053,294;84,05269
 535,32; 2925,208; 1596,212; 3131,280;86,57568
 535,90; 2518,687; 1179,213; 2802,740;82,50394
 536,49; 1840,248;  478,212; 2073,794;85,36297
 537,07; 1484,985;   94,239; 1792,472;81,89369
 537,65; 3353,949; 1980,234; 3868,377;72,75482
 538,24; 1683,513;  184,205; 1996,982;82,70781
 538,82; 2040,123;  556,217; 2348,118;82,81181
 539,40; 3064,494; 1499,181; 3505,709;78,01100
 539,99; 2801,078; 1219,223; 3082,187;84,91066
 540,57; 1936,797;  360,224; 2230,160;84,31162
 541,15; 3064,780; 1496,244; 3249,054;89,48695
 541,73; 2731,703; 1080,241; 3012,161;85,48292
 542,32; 1939,352;  266,207; 2194,928;86,74892
 542,90; 2593,822;  940,218; 2943,835;82,53095
 543,48; 3301,961; 1412,196; 3604,765;86,18956
 544,06; 2509,624;  700,240; 2811,702;85,69343
 544,65; 3246,708; 1574,188; 3476,264;87,93130
 545,23; 1960,010;  121,185; 2374,832;81,59333
 545,81; 4822,282; 2978,219; 5217,321;82,35724
 546,39; 2046,528;   32,188; 2368,237;86,22847
 546,98; 3025,679;  912,199; 3338,171;87,11890
 547,56; 2870,348;  705,212; 3404,794;80,20265
 548,14; 3659,282; 1559,219; 4090,321;82,97028
 548,72; 3672,046; 1499,214; 4022,226;86,12055
 549,31; 2810,646;  550,214; 3186,226;85,75195
 549,89; 3074,401;  690,197; 3472,995;85,67650
 550,47; 3141,350;  787,209; 3645,361;82,36584
 551,05; 2952,162;  570,218; 3448,348;82,76013
 551,63; 4191,462; 1782,218; 4735,348;81,58274
 552,22; 3349,602;  807,219; 3836,578;83,92478
 552,80; 3160,390;  671,232; 3494,174;88,17603
 553,38; 3418,769;  820,187; 3842,034;85,99316
 553,96; 3192,925;  659,215; 3611,686;85,81659
 554,54; 4158,732; 1459,231; 4739,971;82,28329
 555,13; 3458,690;  742,209; 3857,875;87,18783
 555,71; 2783,135;  -79,797; 3272,806;85,39432
 556,29; 4675,058; 1856,200; 5157,630;85,38292
 556,87; 3488,252;  686,207; 4054,928;83,17829
 557,45; 3236,984;  358,240; 3720,188;85,62724
 558,03; 3250,527;  277,190; 3690,954;87,09849
 558,62; 3992,591; 1018,208; 4566,158;83,83385
 559,20; 3480,745;  402,192; 4001,643;85,52841
 559,78; 4539,279; 1505,199; 5035,171;85,95195
 560,36; 3750,479;  651,222; 4298,470;84,97521
 560,94; 3922,572;  795,207; 4566,185;82,93246
 561,52; 4982,137; 1763,201; 5317,374;90,56781
 562,11; 4063,578;  655,200; 4736,887;83,50414
 562,69; 4408,889; 1013,210; 5016,591;84,82029
 563,27; 3475,332;   84,207; 3974,672;87,16503
 563,85; 4573,196; 1212,202; 5279,577;82,63300
 564,43; 3384,188;  -79,788; 3914,023;86,73358
 565,01; 4045,374;  536,205; 4689,752;84,48607
 565,59; 3722,611;  157,184; 4305,115;85,95676
 566,18; 3928,556;  382,203; 4563,063;84,82352
 566,76; 4205,930;  552,233; 4924,404;83,56711
 567,34; 4714,692; 1008,207; 5429,442;83,83371
 567,92; 4754,472; 1082,184; 5428,885;84,48448
 568,50; 4570,715;  895,203; 5400,549;81,58113
 569,08; 5187,215; 1355,203; 5960,549;83,20791
 569,66; 4489,004;  728,192; 5279,129;82,63819
 570,24; 4521,447;  546,236; 5409,810;81,73437
 570,82; 5343,416; 1541,202; 6105,833;83,29729
 571,40; 4267,806;  264,214; 5088,713;82,98461
 571,99; 4339,983;  412,217; 5283,889;80,62461
 572,57; 4532,131;  432,184; 5410,372;82,35823
 573,15; 5924,329; 1761,211; 6769,820;83,11923
 573,73; 4152,514;   -2,796; 5018,266;82,75760
 574,31; 4564,950;  514,233; 5371,661;83,39223
 574,89; 4933,604;  656,193; 5907,846;81,44885
 575,47; 4358,557;    2,201; 5245,347;83,08668
 576,05; 5458,415;  971,227; 6356,565;83,32229
 576,63; 5275,427;  659,190; 6209,954;83,16400
 577,21; 4809,638;  317,224; 5697,673;83,49514
 577,79; 5245,274;  636,205; 6059,752;84,98255
 578,37; 4590,110;  -66,791; 5606,131;82,08999
 578,95; 5171,629;  394,211; 5910,820;86,60062
 579,53; 5286,301;  376,197; 6079,995;86,08482
 580,11; 4852,618;  -62,800; 5839,400;83,28111
 580,69; 6109,775; 1108,203; 6969,036;85,33892
 581,27; 7481,765; 2331,191; 8476,899;83,80765
 581,85; 5848,708;  691,211; 6871,564;83,44989
 582,43; 6632,653; 1266,206; 7510,212;85,94558
 583,01; 5950,986;  641,213; 6890,740;84,96281
 583,59; 5683,623;  254,217; 6521,119;86,63621
 584,17; 6345,204;  904,216; 7375,146;84,08355
 584,75; 6128,245;  630,192; 7118,643;84,73599
 585,33; 6356,374;  905,205; 7203,752;86,54645
 585,91; 6626,801; 1225,197; 7565,995;85,18808
 586,49; 6219,620;  553,221; 7225,268;84,92745
 587,07; 6160,275;  566,227; 7289,335;83,20627
 587,65; 6576,401; 1037,220; 7848,294;81,32610
 588,23; 6382,847;  787,189; 7429,210;84,24630
 588,81; 6624,494; 1029,204; 7819,009;82,40722
 589,39; 6316,103;  583,194; 7433,562;83,68760
 589,97; 7534,289; 1779,210; 8975,591;79,97185
 590,55; 6048,993;  307,205; 7337,726;81,66946
 591,13; 6352,827;  706,236; 7613,553;81,74797
 591,71; 6915,461; 1103,196; 8231,765;81,53482
 592,29; 6465,497;  572,201; 7854,860;80,92231
 592,87; 7089,208; 1292,211; 8597,563;79,35274
 593,45; 6107,218;  258,200; 7499,400;80,77415
 594,03; 7413,294; 1703,204; 8961,009;78,67516
 594,61; 5942,109;  206,234; 7382,863;79,92436
 595,19; 6394,792;  622,207; 8045,442;77,76374
 595,77; 6084,951;  266,208; 7842,645;76,80052
 596,35; 6465,480;  597,197; 8291,738;76,26554
 596,93; 5903,331;  166,232; 7465,688;78,59625
 597,51; 6318,135;  539,227; 8026,822;77,17976
 598,09; 6521,359;  679,221; 8208,497;77,59230
 598,66; 7293,613; 1277,205; 9010,982;77,79392
 599,24; 6239,356;  239,201; 8051,347;76,80547
 599,82; 7280,517; 1287,201; 8959,117;78,12020
 600,40; 6516,320;  420,221; 8404,268;76,35350
 600,98; 7749,657; 1674,225; 9616,646;76,49344
 601,56; 6633,547;  303,213; 8370,510;78,46908
 602,14; 6861,166;  474,190; 8600,184;78,59932
 602,72; 7069,539;  608,198; 8736,940;79,48758
 603,30; 7042,365;  714,215; 8780,199;78,45478
 603,87; 7332,704;  849,170; 9039,546;79,16039
 604,45; 7613,627;  880,213; 9246,253;80,48508
 605,03; 7034,539;  251,198; 8654,940;80,71810
 605,61; 7695,385;  886,216; 9178,172;82,11777
 606,19; 7110,954;  217,205; 8519,496;83,03429
 606,77; 8327,438; 1275,199; 9863,657;82,11298
 607,35; 6920,597; -145,799; 8487,860;81,84706
 607,93; 7267,540;  208,197; 8830,225;81,87567
 608,50; 8091,131; 1033,208; 9681,388;81,61166
 609,08; 7465,781;  479,197; 9254,738;79,61428
 609,66; 8773,841; 1832,196;10546,508;79,65798
 610,24; 8257,490; 1341,232;10070,174;79,23364
 610,82; 6906,122;  170,218; 9086,835;75,54327
 611,40; 8191,563; 1575,218;10409,349;74,89525
 611,97; 6672,357;  232,200; 8825,630;74,94280
 612,55; 6193,580; -115,802; 8626,454;72,17109
 613,13; 7410,126; 1137,190; 9967,953;71,03505
 613,71; 7609,797; 1377,201;10523,860;68,14068
 614,29; 7016,033;  932,206; 9948,955;67,47251
 614,87; 6568,143;  678,194; 9475,075;66,95497
 615,44; 6892,095; 1186,203;10147,293;63,67409
 616,02; 5910,727;  245,213; 9434,253;61,65513
 616,60; 5890,480;  239,197; 9260,738;62,64211
 617,18; 6829,628; 1084,187;10457,521;61,29560
 617,76; 6816,273; 1233,206;10542,469;59,97325
 618,33; 5710,760;  211,197; 9411,481;59,77601
 618,91; 6652,970; 1185,186;10553,318;58,36578
 619,49; 7239,338; 1732,199;11607,657;55,76591
 620,07; 6492,556; 1196,203;10693,063;55,76952
 620,64; 6060,186;  789,191;10337,156;55,20542
 621,22; 5032,856; -137,799; 9135,347;55,75945
 621,80; 5634,940;  329,197; 9918,225;55,33140
 622,38; 7236,658; 1932,200;11579,630;54,98312
 622,95; 6109,905;  956,192;10646,130;53,18623
 623,53; 5056,506;   -6,786; 9681,713;52,26085
 624,11; 5715,489;  551,210;10197,591;53,53593
 624,69; 5284,760;  233,197; 9799,481;52,80591
 625,26; 5274,857;  126,225; 9828,646;53,06543
 625,84; 5337,015;  262,203; 9831,550;53,03196
 626,42; 5676,740;  617,220;10262,524;52,45578
 627,00; 6022,904; 1008,240;10723,445;51,61665
 627,57; 6308,546; 1155,237;11066,525;51,99434
 628,15; 5133,458;  -96,801; 9911,914;52,25705
 628,73; 6566,212; 1325,206;11492,698;51,54669
 629,31; 5836,916;  673,226;10785,850;51,06182
 629,88; 6177,802;  842,195;11170,278;51,66115
 630,46; 5192,491; -223,792;10236,158;51,78116
 631,04; 5883,904;  512,216;10841,146;52,00624
 631,61; 5818,940;  589,197;10938,225;50,53366
 632,19; 5145,264; -158,808;10395,616;50,25449
 632,77; 5780,296;  451,225;10875,876;51,11990
 633,34; 5466,051;  108,208;10721,645;50,48170
 633,92; 6207,187;  822,213;11583,739;50,03912
 634,50; 5577,670;  121,232;10976,917;50,26342
 635,08; 7111,650; 1781,233;12500,660;49,72670
 635,65; 6322,478;  790,200;11532,887;51,49808
 636,23; 5931,172;  428,207;11148,185;51,33374
 636,81; 6991,152; 1479,207;12251,929;51,16576
 637,38; 5214,012; -246,794;10548,698;50,58413
 637,96; 5296,856; -144,774;10888,362;49,32079
 638,54; 6721,100; 1145,221;12271,011;50,11670
 639,11; 5797,163;  224,194;11502,332;49,41391
 639,69; 7297,271; 1730,185;12938,602;49,66880
 640,26; 5716,276;  209,212;11269,127;49,79300
 640,84; 6488,284;  874,212;12342,369;48,95356
 641,42; 5836,192;  217,212;11386,611;50,30691
 641,99; 5803,300;   82,211;11582,854;49,74582
 642,57; 6156,107;  481,211;11914,097;49,63660
 643,15; 7223,916; 1585,211;12723,339;50,62524
 643,72; 5600,624; -182,789;11388,581;49,98036
 644,30; 5869,832;   91,211;11770,823;49,47614
 644,87; 6592,939;  777,210;12639,066;49,02883
 645,45; 5607,747; -212,790;11464,309;49,84575
 646,03; 7119,655; 1097,210;13081,551;50,25262
 646,60; 7556,963; 1491,210;13501,793;50,50340
 647,18; 6172,971;  198,210;11787,036;51,55622
 647,75; 6375,579;  217,209;12517,278;50,06776
 648,33; 6121,687;    8,209;12128,521;50,43994
 648,91; 5749,595; -250,791;11704,763;50,18911
 649,48; 6173,002;   38,209;12421,005;49,54288
 650,06; 6675,710;  363,209;12990,248;49,99194
 650,63; 6393,218;   -4,792;12749,490;50,16362
 651,21; 7085,426;  858,208;13336,732;49,90348
 651,79; 7490,834; 1101,208;14128,975;49,04621
 652,36; 7141,742;  789,208;13837,218;48,68585
 652,94; 6654,350;  264,207;13216,460;49,33615
 653,51; 6595,758;  178,207;13237,702;49,14088
 654,09; 7350,166;  755,207;13939,944;50,01965
 654,66; 7022,474;  591,207;13750,187;48,87360
 655,24; 6911,082;  399,207;13490,430;49,74230
 655,81; 7716,189; 1080,206;14569,672;49,19382
 656,39; 7119,998;  339,206;14336,914;48,44216
 656,96; 6829,805;   50,206;13642,156;49,87952
 657,54; 8235,514; 1296,206;15239,399;49,76843
 658,11; 7446,421;  518,206;14317,642;50,20651
 658,69; 7346,329;  618,205;14216,884;49,47631
 659,27; 7726,337;  806,205;14521,126;50,45696
 659,84; 8172,345; 1189,205;15261,369;49,62378
 660,42; 7034,853;   56,205;13802,611;50,76707
 660,99; 6962,661; -252,796;13913,854;50,93270
 661,57; 7927,769;  667,204;14943,096;50,85892
 662,14; 8192,376;  943,204;15157,338;50,99974
 662,72; 6879,984; -356,796;13765,581;51,24336
 663,29; 7277,792;   22,204;14388,823;50,50310
 663,87; 7025,800; -263,797;14140,065;50,60863
 664,44; 8670,508; 1122,203;15675,308;51,86732
 665,01; 8002,316;  394,203;15016,551;52,03072
 665,59; 7837,724;  150,203;15270,793;50,84141
 666,16; 7764,332;  -80,797;15058,035;51,82123
 666,74; 8030,640;  178,202;15348,277;51,76268
 667,31; 8194,548;   87,202;15679,521;51,99577
 667,89; 8612,756;  369,202;16162,763;52,19566
 668,46; 9698,863; 1387,202;17226,004;52,47658
 669,04; 9562,771; 1180,202;17005,248;52,97027
 669,61; 8863,180;  301,201;16584,490;52,58138
 670,19; 8826,587;  112,201;16808,732;52,19279
 670,76; 8944,095;  -86,799;16919,975;53,10175
 671,33; 8845,603;  -39,799;16870,217;52,54520
 671,91;10417,311; 1450,200;18531,459;52,49678
 672,48; 9422,619;  339,200;17357,701;53,37379
 673,06;10130,827;  850,200;18025,943;54,03334
 673,63; 9549,234;  225,200;17593,188;53,68517
 674,21; 9179,543; -385,800;17190,430;54,42204
 674,78;10184,450;  731,199;18255,672;53,94314
 675,35;10214,258;  524,199;17752,914;56,24365
 675,93;11160,366; 1321,199;18961,156;55,77773
 676,50;10309,774;  263,199;17748,398;57,45760
 677,08;10049,282;  -18,801;17589,641;57,17759
 677,65; 9889,689;  -95,802;17009,883;58,37528
 678,22;10436,498;  346,198;17765,125;57,92722
 678,80;10086,605; -342,802;17353,369;58,93596
 679,37;10794,914;  -99,802;18448,611;58,73665
 679,94;11160,222;   25,198;18851,854;59,14499
 680,52;12015,029;  654,197;19704,096;59,63723
 681,09;12423,237;  653,197;19873,338;61,23805
 681,67;13213,245; 1035,197;21087,580;60,73118
 682,24;13119,653;  748,197;20765,822;61,80282
 682,81;12380,161;  -68,804;20107,064;61,70225
 683,39;12749,769;   -6,804;20163,307;63,24493
 683,96;13402,277;  217,196;21056,551;63,27010
 684,53;14603,785;  926,196;22023,793;64,83008
 685,11;14590,192;  634,196;21983,035;65,37122
 685,68;14676,700;  302,195;21897,277;66,56379
 686,25;14589,608;    7,195;21761,520;67,03225
 686,83;15371,017;  525,195;22202,762;68,48472
 687,40;15665,925;  597,195;22262,004;69,55395
 687,97;15612,933;  561,195;21958,246;70,34492
 688,55;15496,340;    7,194;21613,488;71,68812
 689,12;16076,648;  324,194;21671,732;73,79050
 689,69;17263,355; 1173,194;22751,975;74,56474
 690,27;16589,463;   45,194;21972,217;75,45151
 690,84;16780,871; -358,806;22096,459;76,32810
 691,41;18470,279;  896,193;23377,701;78,17130
 691,98;18642,387;  968,193;23514,943;78,38910
 692,56;18624,496;  639,193;23211,186;79,67973
 693,13;18328,203; -292,807;22759,428;80,77746
 693,70;19365,111;  609,192;23657,672;81,37595
 694,28;19437,420;  330,192;23392,914;82,84897
 694,85;19391,428;  -69,808;23219,156;83,56420
 695,42;19984,336;   98,192;23901,398;83,54397
 695,99;20740,943;  730,192;24511,641;84,14438
 696,57;20148,051;    9,191;23744,883;84,84631
 697,14;20660,059;  397,191;24439,125;84,28135
 697,71;20739,867;  111,191;24342,367;85,13279
 698,28;21631,475;  615,191;25335,609;85,01589
 698,86;23248,482; 2017,191;26692,854;86,04142
 699,43;21880,490;  707,190;25533,096;85,28712
 700,00;21368,299;  347,190;25060,338;85,06043
 700,57;20512,207; -393,810;24120,580;85,28059
 701,15;21394,215;  626,190;25130,822;84,75142
 701,72;20704,822; -142,811;24292,064;85,31917
 702,29;22139,730;  748,189;26148,307;84,21828
 702,86;21342,838; -417,811;25519,549;83,89693
 703,43;22606,146;  857,189;26757,791;83,97086
 704,01;21538,453;  -50,811;25467,035;84,60457
 704,58;21151,061; -442,812;25364,277;83,67419
 705,15;22299,969;  762,188;26588,520;83,39466
 705,72;21337,078; -392,812;25897,762;82,65278
 706,29;21881,086;  193,188;26277,004;83,14695
 706,87;22069,293;  317,188;26476,246;83,15324
 707,44;22187,602;  353,187;26750,488;82,71457
 708,01;22304,408;  235,187;27246,730;81,70293
 708,58;21992,316; -287,813;26833,973;82,14846
 709,15;22062,424; -436,813;27175,217;81,48346
 709,72;23647,332; 1259,187;28503,459;82,17560
 710,30;23385,541;  525,186;28394,701;82,02638
 710,87;22283,848; -449,814;27102,943;82,50957
 711,44;22566,057;  -83,814;27466,186;82,21369
 712,01;22558,264;  -87,814;27783,428;81,25249
 712,58;22451,473; -339,815;27789,670;81,02277
 713,15;23312,580;  355,185;28702,912;80,98496
 713,73;23369,389;  265,185;28709,156;81,22707
 714,30;23880,596;  522,185;29229,398;81,36774
 714,87;24119,604;  446,185;29473,641;81,55527
 715,44;23999,711;  -91,816;29158,883;82,36223
 716,01;24803,219;  704,184;29834,125;82,72943
 716,58;24519,828;  421,184;29717,367;82,25865
 717,15;26389,336; 2039,184;31491,609;82,67622
 717,72;24449,344; -116,816;29517,852;82,89669
 718,30;24765,352; -445,817;29934,094;82,98632
 718,87;25274,959;  240,183;30248,338;83,42658
 719,44;25476,467;  187,183;30515,580;83,38483
 720,01;25254,074;  246,183;30144,822;83,64224
 720,58;25989,883; 1142,182;30566,064;84,44739
 721,15;24872,990; -338,818;29900,307;83,37480
 721,72;25381,600;  254,182;30281,549;83,68172
 722,29;25813,307;  596,182;30413,791;84,57125
 722,86;25970,215;  265,182;30622,033;84,67622
 723,43;27072,822;  933,181;31447,275;85,66416
 724,00;26573,531;  639,181;31440,520;84,19878
 724,57;26619,539;  685,181;31130,762;85,18267
 725,14;26169,646;  174,181;30525,004;85,64995
 725,72;26882,953;  223,181;31211,246;86,03239
 726,29;27744,563;  461,180;32152,488;86,09106
 726,86;28826,369; 1246,180;32934,730;87,03519
 727,43;29149,078;  785,180;33613,973;86,39946
 728,00;28867,986;  209,180;33519,215;86,03655
 728,57;30130,895;  814,180;34928,457;85,93679
 729,14;29494,502; -104,821;33905,699;87,02990
 729,71;30018,309;  615,179;34412,941;86,99727
 730,28;30300,617;  939,179;35102,184;85,94513
 730,85;30460,426;  767,179;34825,426;87,18372
 731,42;29996,334; -112,822;34341,672;87,38818
 731,99;30126,041;   28,178;34594,914;87,07175
 732,56;31423,248; 1352,178;35864,156;87,13227
 733,13;30328,057;  358,178;34711,398;87,24038
 733,70;30367,266;  610,178;34982,641;86,57246
 734,27;30127,873;  152,177;34490,883;87,29419
 734,84;28914,580; -409,823;33668,125;86,05096
 735,41;29754,988;  812,177;34050,367;87,07698
 735,98;29314,996;  307,177;34020,609;86,04232
 736,55;28879,604; -488,823;33605,852;86,13787
 737,12;29366,313; -187,824;33824,094;86,89347
 737,69;29763,020;  191,176;33995,336;87,47989
 738,26;30067,229; -115,824;34026,578;88,40342
 738,83;30714,436;  236,176;35097,820;87,42634
 739,40;31201,943;  208,176;35526,063;87,75657
 739,97;31188,752;  214,175;35583,305;87,57517
 740,53;31648,260;  604,175;36059,547;87,55820
 741,10;31517,168;  784,175;35864,793;87,60676
 741,67;30979,475;  322,175;35477,035;87,20643
 742,24;31299,383;  338,174;36101,277;86,57305
 742,81;30615,191; -446,826;35431,520;86,57595
 743,38;32380,398; 1540,174;37355,762;86,10839
 743,95;31040,307;  300,174;36291,004;85,41101
 744,52;31996,115;  963,174;37331,246;85,33018
 745,09;31200,322; -184,827;36585,488;85,35458
 745,66;32036,230;  853,173;37192,730;85,81023
 746,23;31857,738;  662,173;37320,973;85,09707
 746,80;32434,746; 1280,173;37306,215;86,47792
 747,36;32078,654;  664,173;37368,457;85,58805
 747,93;31320,063;   74,172;36547,699;85,66731
 748,50;31024,670; -124,828;36481,941;85,09218
 749,07;31060,379;  233,172;36244,184;85,60495
 749,64;30799,686;  -63,828;36036,426;85,49390
 750,21;32577,795; 1148,172;37699,668;85,98724
 750,78;31936,201; -128,829;37333,910;85,59179
 751,35;33132,309;  632,171;38715,156;85,34031
 751,92;32346,918;  -64,829;37872,398;85,43520
 752,48;31959,727; -425,829;37342,641;85,74760
 753,05;32555,834;  116,170;37409,883;86,98427
 753,62;33627,043;  876,170;38777,125;86,41174
 754,19;33406,551; 1012,170;38364,367;86,72684
 754,76;33351,559; 1078,170;38416,609;86,43476
 755,33;31818,666; -402,830;36993,852;86,16138
 755,89;33689,973; 1118,169;38714,094;86,63653
 756,46;32612,580;  238,169;38079,336;85,55342
 757,03;32453,789;  346,169;37749,578;85,84143
 757,60;31194,797; -244,831;36715,820;85,06243
 758,17;31628,404;  401,169;36854,063;85,66463
 758,74;32182,113;  993,168;37374,305;85,72834
 759,30;31332,721; -440,832;36653,547;85,65598
 759,87;32465,928;  345,168;37582,789;86,25889
 760,44;33776,836; 1056,168;39076,031;86,06203
 761,01;32918,043;  227,167;38137,277;86,23261
 761,58;33273,254;  785,167;38617,520;85,87382
 762,14;32859,762;  318,167;37994,762;86,37085
 762,71;32784,469;   43,167;38130,004;85,96488
 763,28;33331,375;  774,167;38274,246;86,81904
 763,85;32343,584; -387,834;36861,488;87,87118
 764,41;32913,090;  255,166;37715,730;87,17948
 764,98;33054,301;  261,166;38079,973;86,71118
 765,55;32261,908; -479,834;37246,215;86,78816
 766,12;33087,117;  587,166;38452,457;85,83045
 766,69;32688,023;  294,165;38033,699;85,83534
 767,25;33577,730; 1070,165;38730,941;86,31677
 767,82;33313,438;  369,165;38485,184;86,43157
 768,39;33345,445;  -37,835;38552,426;86,50701
 768,95;33119,855; -135,835;38351,668;86,40646
 769,52;33250,563;  255,164;38356,910;86,59813
 770,09;33152,672; 1049,164;38295,152;86,19320
 770,66;34957,680; 2247,164;39772,395;87,16939
 771,22;33842,387; 1107,164;38690,641;87,10004
 771,79;33888,594; 1220,163;38201,883;88,33670
 772,36;33113,801;  840,163;37451,125;88,15294
 772,93;32372,811;  -22,837;36830,367;87,90456
 773,49;33188,219;  892,163;37622,609;87,92721
 774,06;32750,025;  200,163;37061,852;88,30269
 774,63;32459,834;  210,162;37182,094;87,22745
 775,19;31696,541;  104,162;36112,336;87,73669
 775,76;31576,650;  179,162;35692,578;88,41022
 776,33;31524,158; -161,838;36070,820;87,45148
 776,89;32762,766;  632,162;37260,063;87,72166
 777,46;32488,074;  167,161;37432,305;86,73229
 778,03;32962,883;  480,161;37473,547;87,80684
 778,59;31461,590; -535,839;36565,789;86,24265
 779,16;32093,098;  -96,839;37203,031;86,30040
 779,73;32844,207;  426,161;37610,273;87,18252
 780,29;33389,113;  438,160;38322,516;86,97773
 780,86;33299,820;  104,160;38292,762;86,92557
 781,43;33633,527; 1006,160;38431,004;87,18104
 781,99;32314,736; -105,840;36994,246;87,38680
 782,56;32790,043;  355,159;37497,488;87,32593
 783,13;32813,254;  443,159;37007,730;88,52858
 783,69;32464,861; -107,841;37078,973;87,59208
 784,26;32402,969; -178,841;36990,215;87,65843
 784,82;32586,775;  283,159;37314,457;87,23328
 785,39;31620,484; -469,842;36583,699;86,60529
 785,96;32097,691;  212,158;37232,941;86,12874
 786,52;32256,900;  296,158;37319,184;86,32666
 787,09;31713,908;   91,158;36702,426;86,37437
 787,65;30974,816; -307,842;35796,668;86,64474
 788,22;31592,924;  539,157;36523,910;86,29701
 788,79;31775,832;  596,157;36630,152;86,52850
 789,35;31240,139;  -27,843;36261,395;86,16324
 789,92;30847,947; -139,843;35605,637;86,69009
 790,48;30549,855;  174,157;35624,879;85,68429
 791,05;30705,164;  464,156;35466,125;86,39802
 791,62;31280,971;  940,156;35725,367;87,22332
 792,18;30963,879;  334,156;35835,609;86,27738
 792,75;30759,887;  -53,844;35575,852;86,48328
 793,31;30740,695; -168,845;35647,094;86,30108
 793,88;31906,502; 1212,155;36948,336;85,89151
 794,44;30421,211;   96,155;34735,578;87,54492
 795,01;30381,418;  563,155;34948,820;86,71713
 795,57;30024,127;  133,155;34409,063;87,20695
 796,14;30974,135;  718,154;35481,305;87,03463
 796,70;30108,742; -465,846;34389,547;87,71839
 797,27;31106,150;  864,154;35695,789;86,82336
 797,83;30273,658;  -45,846;34974,031;86,57799
 798,40;31246,566;  209,154;35872,273;87,02944
 798,97;31630,174;   95,153;36490,516;86,64571
 799,53;31623,082; -238,847;36552,758;86,60109
 800,10;31053,990; -475,847;36098,000;86,20870
 800,66;31018,898;  243,153;35847,246;86,43878
 801,23;30771,605;  279,152;35640,488;86,23106
 801,79;33138,613; 2528,152;37939,730;86,44196
 802,35;31227,322;  371,152;35644,973;87,47612
 802,92;31005,930;  258,152;35778,215;86,56454
 803,48;30497,736;  244,152;35068,457;86,87491
 804,05;30340,545;  572,151;34905,699;86,70352
 804,61;31271,754; 1040,151;36058,941;86,32966
 805,18;30805,262;  282,151;35584,184;86,46276
 805,74;31694,668;  831,151;36698,426;86,04924
 806,31;31113,576;  230,151;36073,668;86,16182
 806,87;32985,883; 2274,150;37728,910;86,62231
 807,44;30168,092; -279,850;35077,152;86,11573
 808,00;31427,600;  977,150;36642,395;85,37850
 808,57;30986,309;  522,150;36197,637;85,39241
 809,13;33663,316; 3597,149;38806,879;85,39164
 809,69;30034,424;  485,149;34777,121;86,16966
 810,26;31031,531; 1912,149;35451,363;86,82190
 810,82;28614,641; -488,851;33065,609;86,73509
 811,39;29885,848;  927,149;34341,852;86,66454
 811,95;30863,256; 1787,148;35442,094;86,39475
 812,51;29146,664;  -78,852;33841,336;86,15965
 813,08;28984,371;  -11,852;33532,578;86,44125
 813,64;28714,379;   10,148;32919,820;87,22126
 814,21;30121,887; 1972,148;34504,063;86,52961
 814,77;31530,496; 3352,147;36078,305;86,10344
 815,33;28812,203;  189,147;33032,547;87,15010
 815,90;28574,211;  160,147;32757,789;87,16601
 816,46;28779,318;  351,147;33162,031;86,64250
 817,03;28865,727;  222,147;33386,273;86,36917
 817,59;30187,834; 1274,146;34713,516;86,46601
 818,15;30381,443; 1287,146;35082,758;86,08898
 818,72;30079,951;  750,146;34705,000;86,37883
 819,28;29055,158;  268,146;33751,242;85,97476
 819,84;30073,766; 1659,146;34825,484;85,67307
 820,41;27869,773;  -88,855;32499,729;85,79271
 820,97;28561,182;  776,145;32783,973;86,80701
 821,53;27966,590; -146,855;32415,213;86,33802
 822,10;29413,998;  976,145;34066,457;85,94012
 822,66;29008,406;  330,144;33427,699;86,64768
 823,22;27858,715; -197,856;31954,941;87,26012
 823,79;30410,422; 2562,144;34873,184;86,18812
 824,35;27502,930;  -72,856;31755,426;86,63925
 824,91;27096,037; -137,856;31284,668;86,66997
 825,48;27895,545; 1003,143;32283,910;85,97104
 826,04;27508,953;  949,143;31507,152;86,91604
 826,60;26763,861;  357,143;31032,395;86,08477
 827,17;26833,369;  552,143;31071,637;86,11292
 827,73;26236,076; -452,857;30206,881;87,04880
 828,29;27274,785; -171,858;31222,123;87,42645
 828,85;28156,094;  207,142;32176,365;87,42456
 829,42;29340,000; 1679,142;33882,605;85,89405
 829,98;28483,109;  958,142;32906,848;86,15362
 830,54;28223,617;  972,141;32456,092;86,55672
 831,11;26808,324;  -95,859;31538,334;85,04779
 831,67;26816,832; -165,859;31383,576;85,52512
 832,23;27252,240;  -55,859;31762,818;85,82412
 832,79;27428,549;   33,141;32259,063;85,01047
 833,36;28188,957;  972,140;33105,305;84,70008
 833,92;26715,965;   -5,860;30838,547;86,63426
 834,48;26698,973;  319,140;30895,789;86,27444
 835,04;25783,779;  -93,860;29765,031;86,66644
 835,60;26501,287;  679,140;30495,273;86,60461
 836,17;26542,795;  498,139;30852,516;85,80198
 836,73;25666,504; -322,861;29595,758;86,86686
 837,29;25528,512; -127,861;29528,000;86,51367
 837,85;26476,119;  753,139;30225,244;87,27907
 838,42;25255,428; -429,861;29038,486;87,16230
 838,98;25554,234; -372,862;29292,729;87,39788
 839,54;25876,643; -292,862;30042,971;86,26598
 840,10;27075,551;  542,138;30921,213;87,34108
 840,66;26326,359;  429,138;30053,455;87,41880
 841,23;26454,166;  523,137;30632,697;86,12224
 841,79;26564,375;  560,137;30207,939;87,71051
 842,35;27442,184; 1218,137;31673,182;86,10740
 842,91;25903,590;  175,137;29914,426;86,51334
 843,47;26388,998;  267,137;30446,668;86,55489
 844,03;25426,006; -255,864;29425,910;86,52404
 844,60;25281,715; -139,864;29604,152;85,46788
 845,16;24761,723; -538,864;28730,395;86,44082
 845,72;25095,830;   30,136;29377,637;85,40998
 846,28;24995,438; -217,864;29373,879;85,20384
 846,84;25304,746;   94,135;29399,121;86,02840
 847,40;26006,154;  662,135;30286,365;85,55166
 847,96;25331,662;  -70,865;29307,607;86,46647
 848,53;25360,170;  -74,865;29491,850;86,02591
 849,09;25151,078; -152,865;28802,092;87,39071
 849,65;25649,785;  527,134;29500,334;86,70996
 850,21;25176,494;  227,134;29220,576;86,05174
 850,77;25156,301;  207,134;29170,818;86,13948
 851,33;25600,709;  575,134;29489,061;86,55198
 851,89;27170,717; 2170,134;31082,303;86,47080
 852,45;24812,725; -131,867;28971,547;85,71019
 853,01;25147,332;  274,133;29033,789;86,48643
 853,57;25176,941;  264,133;29057,031;86,52414
 854,14;24507,449; -453,867;28588,273;85,94861
 854,70;25015,857; -104,868;28995,516;86,32438
 855,26;25094,264;  120,132;29491,758;85,02809
 855,82;24885,271;  -32,868;29153,000;85,37741
 856,38;25744,281;  314,132;30155,242;85,21851
 856,94;26292,188;  739,132;30682,484;85,33799
 857,50;26232,396;  162,131;30820,729;85,03411
 858,06;25864,305; -425,869;30486,971;85,04613
 858,62;26165,611;  -85,869;30593,213;85,56801
 859,18;26617,721;  591,131;31064,455;85,40778
 859,74;26094,627;  144,130;30092,697;86,65021
 860,30;25793,135;  287,130;30219,939;85,21086
 860,86;25544,543;  -56,870;29725,182;85,96256
 861,42;25456,652; -430,870;29786,424;85,67121
 861,98;26355,660;  382,130;30621,666;85,89262
 862,54;25349,268; -349,871;29693,910;85,53896
 863,10;26043,975;  604,129;30046,152;86,40658
 863,66;25316,482; -167,871;29482,395;85,94983
 864,22;26337,391;  709,129;30463,637;86,13237
 864,78;25930,199;   15,129;30166,879;85,94881
 865,34;25830,607;  -70,872;29919,121;86,36707
 865,90;26326,414;  358,128;30517,363;86,10393
 866,46;26244,922;  262,128;30451,605;86,06573
 867,02;28072,131; 2357,128;32360,850;85,70604
 867,58;25231,338; -171,872;29462,092;85,72329
 868,14;26509,246; 1469,127;30956,334;84,91859
 868,70;25848,055;  961,127;29985,576;85,74470
 869,26;25705,762;  767,127;30078,818;85,08085
 869,82;24837,369; -190,873;29064,061;85,55221
 870,38;24377,678; -555,874;28712,303;85,18997
 870,94;25898,086; 1293,126;30579,545;84,01491
 871,50;24018,793; -478,874;27782,787;86,68162
 872,06;24019,602; -305,874;28041,031;85,81351
 872,62;24251,209; -218,874;28200,273;86,10421
 873,18;24497,918;  -99,875;28718,516;85,35450
 873,74;25603,125; 1005,125;30007,758;84,81299
 874,29;24841,434;  601,125;28986,000;85,39868
 874,85;23764,033;  -90,875;27635,000;86,03843
 875,41;23552,033;    1,125;27868,000;84,51220
 875,97;24036,533;  342,125;28347,000;84,60816
 876,53;24579,834;  699,125;28932,000;84,58476
 877,09;24736,133;  515,125;28667,000;86,03693
 877,65;25462,033; 1365,125;29459,000;85,77282
 878,21;24177,533;  235,125;28262,000;85,42661
 878,77;24134,434;  229,125;28271,000;85,24861
 879,33;24167,232;  332,125;27876,000;86,53506
 879,88;24290,834;    6,125;28063,000;86,55529
 880,44;24863,232;  211,125;28671,000;86,62058
 881,00;25042,033; -155,875;29223,000;85,76880
 881,56;24981,533;  -64,875;29407,000;84,98410
 882,12;26026,834; 1384,125;30170,000;85,60695
 882,68;24640,732;  309,125;28861,000;85,21895
 883,24;24960,633;  738,125;29355,000;84,64414
 883,79;25887,133; 1468,125;30017,000;85,53405
 884,35;25781,434; 1002,125;30011,000;85,41975
 884,91;24704,633; -395,875;28843,000;85,84635
 885,47;25615,033;  641,125;29940,000;85,23845
 886,03;25248,834;  587,125;29381,000;85,64915
 886,59;23943,533;  -43,875;27912,000;85,80453
 887,14;24808,834;  989,125;28975,000;85,11333
 887,70;23390,033; -543,875;27207,000;86,24560
 888,26;25460,834; 1055,125;29378,000;86,16960
 888,82;25140,934;  330,125;29176,000;86,01163
 889,38;26055,232;  910,125;29904,000;86,72558
 889,93;25390,033;  299,125;29031,000;87,32778
 890,49;25027,633; -431,875;28673,000;87,47506
 891,05;25412,633; -221,875;28983,000;87,77476
 891,61;26320,334;  293,125;30128,000;87,23753
 892,17;27022,633;  573,125;31014,000;86,88813
 892,72;26198,732; -249,875;30579,000;85,79167
 893,28;26390,934;  192,125;31024,000;84,97313
 893,84;25390,033; -438,875;29891,000;85,15996
 894,40;25901,934;  619,125;30278,000;85,24534
 894,95;25168,834; -370,875;29253,000;86,21326
 895,51;26253,633;  173,125;30235,000;86,75609
 896,07;26973,033;   32,125;31120,000;86,66050
 896,63;27135,633; -372,875;31597,000;86,04509
 897,18;28155,533;  422,125;32795,000;85,66866
 897,74;27858,834;  237,125;32422,000;85,82202
 898,30;26672,934; -402,875;30965,000;86,31700
 898,85;27074,033;  304,125;31188,000;86,67924
 899,41;27418,533;  816,125;31676,000;86,20388
 899,97;26296,934; -432,875;30729,000;85,77728
 900,53;27185,834;  367,125;31441,000;86,30629
 901,08;26872,434; -352,875;30972,000;86,91274
 901,64;27923,732;  630,125;32192,000;86,47651
 902,20;27317,533;  -43,875;31718,000;86,14544
 902,75;27461,033;  214,125;31646,000;86,68560
 903,31;27201,133;  -71,875;31252,000;87,06780
 903,87;26931,033; -149,875;31056,000;86,78144
 904,42;27679,133;  697,125;31628,000;87,23325
 904,98;27743,834;  468,125;31871,000;86,85736
 905,54;27576,133;  237,125;31887,000;86,37951
 906,09;27651,732;  148,125;32106,000;86,06207
 906,65;26898,334; -422,875;31466,000;85,67630
 907,21;27516,834;  501,125;31966,000;85,85990
 907,76;26589,732; -159,875;31259,000;85,13865
 908,32;26326,033;   79,125;30805,000;85,42282
 908,88;26033,334;  -29,875;30655,000;84,93829
 909,43;27108,232;  947,125;31667,000;85,16020
 909,99;26186,934;  217,125;30637,000;85,37119
 910,54;25864,834;  266,125;30119,000;85,74956
 911,10;26242,633; 1234,125;30452,000;85,59318
 911,66;26239,232; 1881,125;30385,000;85,45542
 912,21;24559,533;  402,125;28563,000;85,78359
 912,77;23599,934;  -52,875;27714,000;85,18355
 913,33;24653,633;  923,125;28771,000;85,21479
 913,88;23860,934;  321,125;27914,000;85,31118
 914,44;23114,633; -412,875;27012,000;85,78893
 914,99;23520,133; -102,875;27505,000;85,56619
 915,55;23833,934;  382,125;27603,000;86,15376
 916,10;23811,033;  286,125;27489,000;86,47949
 916,66;24065,633;  591,125;28145,000;85,19494
 917,22;22900,633; -127,875;26804,000;85,50652
 917,77;22643,834; -576,875;26700,000;85,12965
 918,33;24017,133;  977,125;27981,000;85,32112
 918,88;23119,633;  373,125;27242,000;84,65746
 919,44;22536,834;  200,125;26330,000;85,48341
 919,99;22863,934;  500,125;26610,000;85,65268
 920,55;23304,434; 1046,125;26988,000;85,80069
 921,10;22559,834;   55,125;26490,000;85,13265
 921,66;22995,033;  479,125;26959,000;85,03027
 922,21;22930,033;  142,125;26787,000;85,52455
 922,77;23630,633;  608,125;27227,000;86,48941
 923,32;25088,133; 1913,125;29024,000;85,48233
 923,88;24310,033; 1020,125;28447,000;84,91638
 924,43;24023,033;  480,125;28083,000;85,29151
 924,99;23866,033;  409,125;28069,000;84,80482
 925,54;23345,934;    6,125;27521,000;84,82615
 926,10;22906,334; -388,875;26958,000;85,18417
 926,65;23587,434;  976,125;27225,000;86,14201
 927,21;22975,633; 1062,125;26937,000;84,69029
 927,76;21815,732;  495,125;25446,000;85,45034
 928,32;20108,334; -510,875;23538,000;85,73877
 928,87;20457,033;  270,125;23935,000;85,30325
 929,43;20479,033;  266,125;23808,000;85,85938
 929,98;20271,334;  -70,875;23374,000;86,76612
 930,54;20673,232;   58,125;23995,000;86,12280
 931,09;20363,334; -202,875;23657,000;86,19580
 931,65;20755,133;  255,125;24181,000;85,68133
 932,20;20873,732;  581,125;24008,000;86,62106
 932,76;20507,732;  539,125;23781,000;85,91651
 933,31;20602,133;  827,125;24039,000;85,19350
 933,86;19968,633;  395,125;23502,000;84,70859
 934,42;19242,334;  -99,875;22644,000;85,04360
 934,97;18841,334;  -72,875;21842,000;86,30763
 935,53;18608,232;  270,125;21672,000;85,68458
 936,08;17687,334;   78,125;20735,000;85,24624
 936,63;16647,533; -143,875;19351,000;86,13242
 937,19;17470,434; 1148,125;20338,000;85,05688
 937,74;16153,634;  142,125;19029,000;84,77585
 938,30;15987,033;  543,125;18522,000;85,90030
 938,85;14929,733; -130,875;17335,000;86,22877
 939,40;15798,833; 1008,125;18355,000;85,26439
 939,96;14894,733;  500,125;17415,000;85,10029
 940,51;14046,233;  245,125;16380,000;85,53589
 941,06;14365,733;  824,125;16545,000;86,13775
 941,62;13614,833;  533,125;15969,000;84,74873
 942,17;13457,533;  876,125;15599,000;85,45483
 942,73;14281,733; 2028,125;16303,000;85,84039
 943,28;11915,434; -276,875;13922,000;85,86813
 943,83;12476,934;  358,125;14520,000;85,57348
 944,39;12130,833;  -32,875;14320,000;84,74754
 944,94;12594,333;  354,125;14767,000;84,92551
 945,49;14656,533; 2352,125;16813,000;85,08758
 946,05;11959,434; -449,875;14001,000;85,87237
 946,60;13250,533;  671,125;15174,000;86,73734
 947,15;12291,934; -359,875;14346,000;86,03234
 947,70;13079,134;  289,125;15501,000;84,07911
 948,26;13137,934;  158,125;15408,000;85,11420
 948,81;12659,934; -144,875;15098,000;84,00521
 949,36;12709,333;  -61,875;15213,000;83,60925
 949,92;13312,634;  712,125;15573,000;84,78982
 950,47;13316,634;  335,125;15450,000;85,88565
 951,02;13376,434;  409,125;15882,000;83,80672
 951,57;14754,134; 1198,125;17229,000;84,56188
 952,13;15021,833; 1147,125;17314,000;85,82183
 952,68;15367,233;  824,125;18100,000;84,18160
 953,23;16927,232; 1760,125;19497,000;85,51172
 953,79;16167,634;  613,125;18657,000;86,20382
 954,34;16022,033;  277,125;18712,000;85,40827
 954,89;15816,934;  -91,875;18293,000;86,53205
 955,44;16055,934;  174,125;18768,000;85,41419
 955,99;16316,934;  550,125;18804,000;86,37513
 956,55;15972,033;  275,125;18928,000;84,15276
 957,10;15740,634;   85,125;18450,000;85,24702
 957,65;15770,733;  242,125;18478,000;85,15417
 958,20;15809,934;  357,125;18502,000;85,16349
 958,76;16204,134;  769,125;18978,000;84,76641
 959,31;16028,733;  712,125;18884,000;84,28744
 959,86;15178,833; -360,875;17975,000;84,75029
 960,41;15556,733;   41,125;18269,000;85,12023
 960,96;19362,934; 3647,125;22371,000;83,93459
 961,52;15755,533; -248,875;18711,000;84,41199
 962,07;16811,633;  730,125;19802,000;84,32054
 962,62;16861,434;  664,125;19559,000;85,72329
 963,17;16453,434;  403,125;19440,000;84,31168
 963,72;15697,634; -325,875;18495,000;85,13690
 964,27;16367,134;  452,125;19339,000;84,26491
 964,83;15474,333; -462,875;18421,000;84,39586
 965,38;15985,434;  -81,875;18795,000;85,11636
 965,93;16546,533;  354,125;19232,000;85,77453
 966,48;16624,533;  261,125;19335,000;85,78964
 967,03;17404,434; 1076,125;20411,000;84,45003
 967,58;17063,434;  719,125;20062,000;84,49782
 968,13;16645,232;  551,125;19527,000;84,81352
 968,69;18333,633; 2483,125;20862,000;86,24308
 969,24;15754,434; -104,875;18485,000;85,31154
 969,79;15374,733; -435,875;18289,000;84,43639
 970,34;15944,033;   54,125;18577,000;85,78532
 970,89;16742,633;  640,125;19419,000;85,74799
 971,44;16312,934;   50,125;19181,000;85,00818
 971,99;17573,834; 1290,125;20402,000;85,20205
 972,54;16482,732;  468,125;19220,000;85,40270
 973,09;15350,733; -476,875;17908,000;86,09038
 973,64;15602,033;  -27,875;18223,000;85,63923
 974,20;15991,033;  515,125;18804,000;84,61925
 974,75;17105,232; 1631,125;19883,000;84,78092
 975,30;15993,833;  388,125;18812,000;84,70372
 975,85;21528,533; 5804,125;24210,000;85,43146
 976,40;16084,634;  396,125;18579,000;86,28178
 976,95;15482,833;   -5,875;18338,000;84,43531
 977,50;15894,333;  836,125;18563,000;84,94564
 978,05;15719,934;  722,125;18384,000;84,91629
 978,60;14593,733; -411,875;17161,000;85,39074
 979,15;16417,533; 1598,125;19195,000;84,21614
 979,70;14784,634;  -78,875;17553,000;84,29908
 980,25;14792,634; -197,875;17511,000;84,64970
 980,80;15062,134; -108,875;17922,000;84,13906
 981,35;15312,333;  -43,875;17844,000;85,84702
 981,90;15144,634;  -72,875;18021,000;84,10309
 982,45;16519,732; 1261,125;19140,000;85,34434
 983,00;16336,134; 1295,125;18729,000;86,27462
 983,55;15370,934;  534,125;17731,000;86,27619
 984,10;15023,533;  124,125;17552,000;85,49182
 984,65;15353,033;  340,125;17716,000;86,40088
 985,20;15709,733;  793,125;18106,000;86,15905
 985,75;15720,533;  818,125;18090,000;86,28136
 986,30;14723,033;  155,125;17059,000;86,18088
 986,85;14946,233;  484,125;17468,000;85,15200
 987,40;15024,333;  736,125;17660,000;84,42634
 987,95;14162,634;   75,125;16813,000;84,16546
 988,50;14247,733;  359,125;16711,000;84,93588
 989,05;15115,333; 1114,125;17505,000;85,42075
 989,60;14656,733;  580,125;17078,000;85,32377
 990,15;14503,634;  718,125;16984,000;84,75110
 990,70;15105,833; 1242,125;17528,000;85,12719
 991,25;13907,333;  354,125;16367,000;84,63944
 991,79;13325,833; -184,875;15618,000;85,49525
 992,34;14559,033; 1190,125;16853,000;85,35411
 992,89;16854,533; 3645,125;18818,000;87,05936
 993,44;13498,033;  433,125;15734,000;85,38667
 993,99;12996,134;  -66,875;15189,000;85,62609
 994,54;13354,134;  338,125;15465,000;86,04559
 995,09;13071,333;  107,125;15102,000;86,45759
 995,64;13736,233;  925,125;15893,000;85,59070
 996,19;12482,934; -258,875;14631,000;85,57364
 996,74;13787,033; 1123,125;15610,000;87,41642
 997,28;12534,533;   55,125;14646,000;85,52885
 997,83;11931,134; -285,875;13993,000;85,56002
 998,38;12143,934;   19,125;14144,000;85,84011
 998,93;12293,233;  129,125;14089,000;87,13623
 999,48;12315,533;   54,125;14201,000;86,67220
1000,03;14545,733; 2080,125;16557,000;86,10704
1000,58;12586,233;   91,125;14632,000;85,93093
1001,12;13773,333; 1074,125;15858,000;85,89905
1001,67;12896,833;  427,125;15076,000;85,12400
1002,22;13392,634; 1165,125;15584,000;84,80210
1002,77;13066,233; 1116,125;15038,000;85,83692
1003,32;11840,934;  134,125;13986,000;84,51425
1003,86;12710,333; 1301,125;14605,000;85,75853
1004,41;11910,733;  504,125;14078,000;84,03355
1004,96;11442,733;   87,125;13674,000;83,57778
1005,51;11699,333;  378,125;13855,000;84,00470
1006,06;12735,434; 1755,125;14831,000;83,97380
1006,60;10781,333;   11,125;12596,000;85,58057
1007,15;11448,233; 1146,125;13251,000;85,10710
1007,70;11004,434;  864,125;12859,000;84,53868
1008,25;10069,333;  307,125;11889,000;84,28867
1008,80; 9280,634; -355,875;11107,000;84,06712
1009,34;10476,833; 1102,125;12240,000;84,16963
1009,89; 9990,733;  691,125;11969,000;82,45887
1010,44; 9657,233;  140,125;11525,000;83,59432
1010,99;10009,233;  498,125;11740,000;84,60429
1011,53; 9384,533; -267,875;11259,000;83,73829
1012,08; 9569,934; -304,875;11538,000;83,38185
1012,63;10510,533;  262,125;12238,000;85,57544
1013,18;10629,134;  392,125;12488,000;84,63223
1013,72;11262,634;  527,125;13362,000;83,64327
1014,27;11169,134;   18,125;13279,000;84,08954
1014,82;12313,033;  918,125;14535,000;83,68226
1015,36;11831,233;  205,125;14165,000;83,28232
1015,91;11897,233;  288,125;14038,000;84,43065
1016,46;12007,233;  372,125;14323,000;83,40056
1017,01;11466,134;  -50,875;13631,000;84,17712
1017,55;11009,134; -228,875;13317,000;82,96259
1018,10;11393,233;  531,125;13502,000;83,74229
1018,65;11171,333;  552,125;13321,000;83,16479
1019,19;11259,233;  772,125;13131,000;84,85488
1019,74;10990,733;  791,125;12927,000;84,04510
1020,29;11017,333;  564,125;12842,000;85,13858
1020,83;10697,934;  518,125;12787,000;82,97263
1021,38;11031,333;  746,125;12944,000;84,31967
1021,93;10392,333;  240,125;12179,000;85,03488
1022,47;10349,134;  156,125;12149,000;84,99220
1023,02; 9709,333; -263,875;11339,000;85,95463
1023,56;10909,134; 1195,125;12673,000;84,63247
1024,11; 9235,634; -380,875;10892,000;85,30662
1024,66; 9978,833;  548,125;11409,000;86,83194
1025,20; 8953,733; -355,875;10524,000;85,56724
1025,75; 9325,634;  152,125;10783,000;86,29119
1026,30; 9484,533;  464,125;11002,000;85,59988
1026,84; 8701,233; -189,875;10380,000;84,11744
1027,39; 9542,733;  770,125;10916,000;86,46478
1027,93; 8546,033;  -97,875;10062,000;85,07888
1028,48; 8927,533;  498,125;10367,000;85,41407
1029,03; 9223,434; 1032,125;10769,000;84,12667
1029,57; 8282,233;  143,125; 9728,000;84,91617
1030,12; 8066,133;  103,125; 9618,000;83,69010
1030,66; 8187,333;  301,125; 9585,000;84,94522
1031,21; 8120,233;  455,125; 9825,000;81,80588
1031,75;10049,033; 2320,125;11678,000;82,59256
1032,30; 8023,333;  516,125; 9360,000;84,88596
1032,84; 7902,433;  702,125; 9347,000;83,28990
1033,39; 7203,333;  105,125; 8572,000;83,83505
1033,94; 6656,733;  -35,875; 8086,000;82,40226
1034,48; 7790,533; 1006,125; 8973,000;85,15771
1035,03; 7410,133;  802,125; 8680,000;83,88059
1035,57; 6606,133;  127,125; 7717,000;85,36383
1036,12; 6230,433; -288,875; 7326,000;85,61281
1036,66; 6985,833;  584,125; 8141,000;84,71370
1037,21; 6249,333; -276,875; 7354,000;85,52372
1037,75; 7918,333; 1455,125; 9104,000;84,49881
1038,30; 6942,233;  492,125; 8004,000;85,86549
1038,84; 6396,033;   54,125; 7547,000;84,63918
1039,39; 5954,833; -293,875; 7124,000;84,23853
1039,93; 6757,233;  586,125; 7699,000;86,75969
1040,48; 6403,433;  368,125; 7616,000;83,27004
1041,02; 6743,433;  790,125; 7846,000;84,37378
1041,57; 6574,533;  557,125; 7677,000;84,51564
1042,11; 6973,933; 1125,125; 7874,000;86,66345
1042,66; 6290,233;  337,125; 7207,000;86,65527
1043,20; 5637,733; -311,875; 6542,000;86,80649
1043,74; 6379,833;  523,125; 7287,000;86,58807
1044,29; 6792,933; 1221,125; 7850,000;84,05360
1044,83; 5969,533;  649,125; 6917,000;84,88376
1045,38; 5402,633;  173,125; 6445,000;83,38030
1045,92; 4779,733; -215,875; 5729,000;84,03219
1046,47; 5134,033;  172,125; 6089,000;83,86028
1047,01; 5695,933;  771,125; 6611,000;84,33071
1047,55; 5324,733;  411,125; 6088,000;86,55481
1048,10; 4658,233; -218,875; 5492,000;85,40037
1048,64; 5435,033;  562,125; 6190,000;86,58522
1049,19; 5265,133;  456,125; 6084,000;85,44981
1049,73; 5194,033;  496,125; 6081,000;84,11841
1050,27; 4745,133;  232,125; 5526,000;85,24962
1050,82; 4640,633;  245,125; 5526,000;83,23447
1051,36; 4389,833;  201,125; 5235,000;83,21042
1051,91; 4855,133;  626,125; 5620,000;84,68390
1052,45; 4708,933;  546,125; 5424,000;85,34061
1052,99; 4230,533;   96,125; 5029,000;83,81336
1053,54; 4513,233;  283,125; 5345,000;83,56801
1054,08; 3912,033; -202,875; 4553,000;86,52264
1054,62; 4560,333;  579,125; 5502,000;80,87161
1055,17; 4736,133;  769,125; 5596,000;82,18585
1055,71; 4336,633;  526,125; 5214,000;81,28434
1056,25; 7084,833; 3304,125; 7942,000;81,51812
1056,80; 4445,533;  821,125; 5204,000;82,69477
1057,34; 3281,733; -197,875; 4029,000;82,32106
1057,88; 3656,733;  133,125; 4288,000;84,80660
1058,43; 4197,633;  789,125; 4871,000;83,50350
1058,97; 3954,233;  586,125; 4601,000;83,89074
1059,51; 4121,533;  667,125; 4678,000;86,12605
1060,06; 4753,533; 1361,125; 5398,000;84,03550
1060,60; 3725,633;  261,125; 4366,000;84,39985
1061,14; 3635,133;  231,125; 4183,000;86,13654
1061,68; 3711,333;  377,125; 4474,000;81,38418
1062,23; 5947,233; 2726,125; 6631,000;82,48941
1062,77; 3756,233;  533,125; 4297,000;85,63272
1063,31; 3625,733;  525,125; 4393,000;80,16310
1063,85; 4041,933;  930,125; 4665,000;83,31760
1064,40; 3162,633;   55,125; 3725,000;84,67613
1064,94; 3202,433;  289,125; 3761,000;83,91167
1065,48; 3327,833;  325,125; 3926,000;83,38829
1066,02; 3821,433; 1011,125; 4362,000;83,86790
1066,57; 3044,733;  255,125; 3484,000;86,39568
1067,11; 2977,633;  234,125; 3494,000;84,15992
1067,65; 3229,533;  543,125; 3828,000;81,78115
1068,19; 3225,433;  507,125; 3711,000;84,84439
1068,74; 2798,533;  220,125; 3271,000;84,51374
1069,28; 4577,033; 1932,125; 5032,000;85,32306
1069,82; 3081,033;  581,125; 3577,000;83,44502
1070,36; 2683,633;   64,125; 3064,000;87,32058
1070,90; 6463,633; 3832,125; 6951,000;84,37364
1071,45; 2813,133;  314,125; 3193,000;86,80503
1071,99; 3074,233;  596,125; 3414,000;87,94245
1072,53; 2844,933;  419,125; 3308,000;83,97069
1073,07; 2865,533;  476,125; 3262,000;85,76869
1073,61; 2633,533;  224,125; 2999,000;86,82944
1074,15; 2937,933;  611,125; 3446,000;82,07799
1074,70; 2968,433;  770,125; 3473,000;81,33222
1075,24; 2599,133;  460,125; 3000,000;84,21707
1075,78; 2353,633;   68,125; 2781,000;84,24672
1076,32; 2714,133;  486,125; 3211,000;81,76552
1076,86; 2483,033;  228,125; 2995,000;81,49658
1077,40; 3629,833; 1387,125; 4052,000;84,15810
1077,94; 3311,933; 1000,125; 3728,000;84,74759
1078,49; 2077,033;   -9,875; 2554,000;81,39665
1079,03; 2290,133;  295,125; 2607,000;86,29395
1079,57; 2829,433;  800,125; 3345,000;79,74098
1080,11; 3069,233; 1024,125; 3452,000;84,23450
1080,65; 3225,233; 1170,125; 3630,000;83,54524
1081,19; 4546,833; 2483,125; 4823,000;88,19738
1081,73; 2279,733;  378,125; 2617,000;84,93589
1082,27; 2190,833;  216,125; 2532,000;85,26834
1082,81; 1865,733;  -11,875; 2140,000;87,25452
1083,35; 2272,833;  279,125; 2635,000;84,62708
1083,89; 2456,133;  464,125; 2861,000;83,10856
1084,44; 3827,633; 1871,125; 4188,000;84,44600
1084,98; 2477,733;  486,125; 2748,000;88,05121
1085,52; 2083,033;  272,125; 2370,000;86,32108
1086,06; 1683,333; -143,875; 1949,000;87,30614
1086,60; 2075,833;  342,125; 2324,000;87,47818
1087,14; 1700,333;   -3,875; 2040,000;83,38124
1087,68; 2353,633;  627,125; 2620,000;86,63405
1088,22; 2029,633;  356,125; 2573,000;75,48952
1088,76; 3014,033; 1404,125; 3364,000;82,14342
1089,30; 1526,733;  -76,875; 1982,000;77,88760
1089,84; 1940,933;  418,125; 2312,000;80,40701
1090,38; 3140,733; 1506,125; 3498,000;82,06380
1090,92; 1780,833;  332,125; 2136,000;80,31091
1091,46; 2145,833;  672,125; 2518,000;79,83792
1092,00; 2194,333;  658,125; 2589,000;79,56021
1092,54; 1721,633;  301,125; 2054,000;81,03877
1093,08; 2567,333;  995,125; 2909,000;82,14791
1093,62; 1830,033;  314,125; 2178,000;81,33101
1094,16; 1282,533; -241,875; 1541,000;85,50282
1094,70; 1342,833; -164,875; 1600,000;85,42862
1095,24; 1829,033;  409,125; 2161,000;81,05078
1095,78; 1758,033;  324,125; 2030,000;84,05706
1096,32; 1644,433;  163,125; 1951,000;82,85302
1096,86; 1857,833;  529,125; 2116,000;83,73113
1097,40; 1995,233;  688,125; 2256,000;83,36814
1097,93; 3157,433; 1831,125; 3494,000;79,75995
1098,47; 2042,033;  640,125; 2359,000;81,55964
1099,01; 2285,633; 1012,125; 2505,000;85,30576
1099,55; 1899,433;  635,125; 2214,000;80,07653
1100,09; 1294,733;   38,125; 1554,000;82,89656

